timestamp,emg1,emg2,emg3,emg4,emg5,emg6,emg7,emg8
161534,-1,2,1,2,0,-3,0,-2
161534,6,-4,0,0,0,-1,-11,-1
161534,-1,-1,-6,2,1,3,27,3
161534,-1,-3,-15,-6,-3,-4,-4,-5
163535,-10,-2,-2,0,-1,-2,-3,-1
163535,-11,-4,6,-5,-2,0,-2,0
166535,19,6,-1,-4,0,-2,-7,-2
166535,-11,-14,-3,-4,-1,-1,-6,1
171731,7,-1,0,2,4,3,2,-1
171731,-6,3,2,-1,-5,-3,-1,-3
181748,-6,-7,7,1,-2,-2,-7,-2
181748,5,3,-3,-3,0,-1,-1,-2
186733,2,11,14,-1,-3,-3,-5,-3
186733,-1,-9,20,2,2,2,1,-4
203547,-7,4,-21,0,0,-3,-8,-5
203547,1,-2,7,27,0,0,0,2
211248,4,0,-26,-32,-4,-1,-2,-8
211248,-6,11,-1,-2,-2,-2,1,-1
216942,-3,-16,-5,2,-2,-1,-4,0
216942,1,0,16,-3,0,-1,2,0
233027,-14,-3,-2,13,1,0,-1,0
233027,5,2,-17,-9,-6,-2,4,1
278752,6,0,0,2,1,1,24,2
278752,-10,0,0,-1,-4,-3,-4,-4
279752,11,-1,-4,0,0,-2,-7,0
279752,-2,3,16,-4,-2,0,-4,-3
281752,11,4,-4,-2,1,-1,-6,2
281752,-2,1,7,-8,-2,-1,-1,0
282751,-8,-6,-4,-2,-2,-2,-7,-4
282751,-8,-4,24,23,2,1,15,5
292037,-3,-1,-11,-19,-2,-1,-4,-2
292037,-6,2,-11,-9,-3,-2,1,1
300345,3,4,-8,0,-2,-2,-3,-3
300345,-1,1,-4,-7,0,-1,-2,-2
307346,-9,-13,2,2,-4,-3,-5,1
307346,-1,-8,4,0,0,0,1,-4
322554,-8,0,-7,-2,-3,-1,1,3
322554,7,2,-3,0,-2,-2,0,0
330555,0,6,6,6,1,3,-4,-3
330555,-4,-4,-16,-2,-3,-3,-5,-7
336560,9,-1,8,4,0,1,4,0
336560,-3,-7,-23,-5,0,-2,-4,2
352554,10,5,6,-9,-3,-2,-7,-2
352554,-12,-1,9,25,4,1,2,-10
360571,-5,-6,-10,-15,-5,-4,-4,-2
360571,-2,-1,15,-14,-1,-3,-6,-2
367555,-5,-2,-13,-7,-2,-1,13,-4
367555,14,0,-3,3,0,0,0,7
391565,-7,7,10,4,3,1,5,2
391565,7,-2,3,12,-4,-2,-13,-3
392556,-10,-1,5,1,-2,-3,-9,-2
392556,4,-1,-31,-14,-2,-2,3,0
396558,-2,-2,15,6,-1,-1,-5,-6
396558,-5,-9,-23,-9,-3,-2,1,-3
412089,0,-3,-3,8,2,-1,2,-1
412089,3,0,0,-3,0,-2,-4,3
420583,1,0,-2,-6,1,1,2,0
420583,-9,-9,3,3,-2,-2,1,-3
426590,1,-4,1,1,0,1,-2,0
426590,6,7,2,-8,-4,-4,-5,-5
442586,-5,-4,12,9,-1,-1,0,-4
442586,6,-1,5,-15,-2,-1,4,-3
450585,-3,2,-12,12,-1,-3,-7,1
450585,-8,-4,13,-7,-1,0,-2,-4
457586,4,1,0,13,0,-2,2,0
457586,9,5,-14,-7,-2,-1,-4,1
471874,-6,-4,-15,-10,-1,-2,-6,-3
471874,-10,2,6,-4,-1,0,5,1
479587,-4,-5,-12,-12,-3,0,-16,-1
479587,2,5,-1,4,-2,0,-7,-8
488588,-5,-1,3,2,1,0,5,-3
488588,3,-4,4,8,-2,-2,-1,3
503382,-5,-5,-2,-1,1,-2,-3,-6
503382,-6,-2,-9,-3,-1,-2,-7,6
517891,4,3,3,-2,-3,-1,-5,-2
517891,0,-3,19,7,0,0,-2,1
518892,2,-1,-26,-8,-3,-1,3,4
518892,-2,3,8,1,-1,-2,2,0
531892,-5,-1,-11,11,2,-1,2,-3
531892,-3,-8,-8,-7,0,-1,-1,-3
539906,0,-1,25,-3,-3,-4,1,-1
539906,-7,-2,-24,2,-2,-3,4,-7
548894,-1,-5,10,-2,0,1,-3,1
548894,-5,-2,-9,-9,-5,0,-4,-5
562892,9,0,0,6,1,2,3,3
562892,1,-2,23,-8,2,0,-1,-6
569893,-4,-6,-12,-4,-5,-3,-5,-9
569893,6,7,-2,2,1,1,0,8
576898,-2,-1,-1,2,2,-1,1,-3
576898,-6,-3,7,5,-2,-1,0,9
591899,-4,1,-5,-4,-3,-3,-2,-9
591899,3,0,3,-1,3,-2,2,-4
599909,-4,3,-6,-5,-6,-4,-21,-1
599909,1,-10,10,-4,2,2,29,1
609476,1,-2,-1,2,-3,-1,-4,0
609476,-2,-1,-7,0,-1,-1,0,0
623119,-3,-12,-5,-3,0,0,-2,-3
623119,7,24,5,-3,-5,-2,-7,-5
629917,-8,0,-12,-15,-2,0,1,2
629917,7,-9,10,8,-3,-3,-2,-2
637115,-1,2,-20,4,3,1,5,2
637115,-4,-4,-6,-5,-2,0,-5,-5
654126,-8,-5,8,1,-2,-2,1,-5
654126,7,2,-13,-7,-2,0,-5,-2
669139,-10,-1,14,-6,0,-3,-1,-9
669139,0,-2,-24,-2,-1,0,1,4
671130,6,3,10,2,-1,-1,-4,1
671130,-4,-7,-2,1,-2,1,-2,-2
682920,1,5,16,-1,-3,-1,3,0
682920,-3,3,-2,9,4,0,-9,-5
690136,0,-2,0,-2,-6,-3,-8,-1
690136,-6,0,-5,-9,1,1,27,2
697118,2,3,-3,2,-3,-1,-1,0
697118,-4,-6,3,6,3,-2,-5,3
712122,1,-6,1,-4,-2,-3,-5,-2
712122,8,2,31,-2,-3,-3,-11,-3
720487,-5,7,-30,-7,-2,-1,1,-1
720487,-2,-10,-19,4,2,0,1,-2
729345,6,0,-7,-3,-2,0,0,-2
729345,-7,-11,-12,-1,-2,-2,-4,-3
743345,0,8,3,10,-2,-1,1,0
743345,-8,1,7,-21,-3,-1,-5,-5
750448,-1,-12,-1,-10,-2,-1,3,2
750448,-2,6,-9,2,0,-2,-1,-4
757482,-7,-5,0,-4,-4,-2,-2,-5
757482,9,-3,-3,10,-2,-1,-1,6
772482,-20,-1,0,-13,2,-1,-2,-23
772482,-6,2,15,29,2,0,-8,2
779348,9,-1,-16,-23,-4,-1,-6,2
779348,-7,-3,-1,4,-3,-3,-6,-6
789450,2,-8,-3,-13,-2,-2,13,15
789450,5,9,0,11,1,-2,-15,-3
803295,-5,-4,32,4,1,0,7,-5
803295,-3,-3,-28,2,0,-2,-2,-1
810296,7,2,-35,-13,-1,-1,-4,0
810296,-6,-3,15,17,0,-1,-5,-4
817486,9,-7,-16,-37,-5,-2,2,11
817486,-9,4,5,12,-3,-1,-1,-6
832335,1,1,11,-2,1,-1,5,4
832335,-3,-14,-19,9,-1,-3,2,-5
840555,-7,-10,-19,-5,-2,-1,-1,0
840555,9,7,15,25,-1,0,-1,-2
857337,0,16,6,-13,1,1,-5,2
857337,-3,-14,-18,-22,-4,0,0,5
863338,-9,-14,23,10,2,-1,-3,-3
863338,5,1,-29,-42,-3,0,-1,1
870338,7,3,9,28,2,2,-9,-5
870338,-5,15,30,7,0,0,20,4
886484,-9,-8,-20,-36,-10,-5,-6,-5
886484,1,1,-9,6,2,0,-7,-1
892476,0,-2,3,48,-6,-2,17,-4
892476,2,7,43,112,17,4,0,-9
900286,-4,-5,-17,-75,-2,-2,-24,1
900286,10,3,7,19,-6,-4,14,-3
909288,-6,-3,7,28,3,-1,-7,-6
909288,7,-13,-2,-52,-8,-2,-1,4
923453,3,8,-24,-1,-1,-3,8,-4
923453,-1,-7,37,6,3,-2,-21,-4
930187,-4,-3,-7,-11,1,1,-4,2
930187,-7,8,10,5,-1,-1,0,2
945190,24,0,11,2,0,-3,-20,4
945190,-12,-1,-13,-34,-3,-1,15,-4
952241,-5,0,17,37,-3,1,-9,-1
952241,4,-3,-32,-22,-3,0,-1,8
960532,-7,17,4,46,-4,0,-4,8
960532,0,-17,-22,-7,-5,-4,-16,-9
970190,-8,-14,74,-26,5,-1,11,2
970190,-6,-12,-101,-75,-16,-7,-16,-2
983494,-7,8,-5,1,0,1,22,-5
983494,6,8,38,57,4,3,-21,7
990531,6,3,9,-45,-2,-1,2,5
990531,-4,0,36,-35,-6,-7,-13,-13
1005205,-5,0,-20,-9,2,1,1,2
1005205,-1,1,20,85,3,2,9,1
1012207,6,-11,-93,-87,-16,-7,-14,1
1012207,-17,12,89,62,12,0,4,-1
1020243,14,-7,-23,-56,-4,-2,-4,-5
1020243,-9,-5,-16,-4,-2,0,30,14
1029216,15,2,-27,24,1,-1,-18,-11
1029216,-11,11,-15,21,-4,3,44,9
1043216,-1,10,81,68,13,1,2,-7
1043216,-23,-15,-81,-107,-12,-7,-32,-16
1050236,-3,10,15,52,-4,-4,6,-11
1050236,18,-24,-27,-35,-12,-6,-18,44
1065223,-7,10,0,49,2,3,31,-2
1065223,13,-3,9,-8,2,-1,10,3
1074218,-18,-7,12,-10,5,-2,-7,-20
1074218,0,10,-36,7,1,0,-21,-15
1080218,0,-10,-4,-2,-7,-2,4,-6
1080218,-4,2,26,-2,3,0,-8,-11
1089245,-4,-13,-12,3,-2,1,8,13
1089245,1,22,11,-12,2,-1,-1,-11
1103240,27,-24,5,10,-1,-2,-3,23
1103240,2,12,-32,-24,-1,-2,11,-9
1110225,7,4,12,15,1,-1,-9,9
1110225,-11,0,-16,-10,-2,-2,1,-12
1125230,-27,-56,20,8,2,-1,-6,2
1125230,17,6,-7,9,-4,-3,-8,-16
1132230,-15,10,-4,-7,-4,-3,9,-4
1132230,9,13,4,3,3,3,-6,-13
1140231,-2,17,-7,11,0,-2,-14,-2
1140231,-5,-8,16,-2,2,4,47,21
1149232,6,2,-8,3,-2,-1,-7,8
1149232,-1,-7,1,-9,-2,-1,1,-5
1163232,-8,-4,-8,1,-7,-5,-12,-9
1163232,0,-4,11,5,0,-1,-9,7
1170233,-3,14,3,-6,1,-1,-5,-6
1170233,-11,-18,-17,2,-1,-1,-7,6
1187234,18,1,4,19,-1,2,16,-6
1187234,-26,8,-27,-2,-2,-2,-13,-4
1192234,5,-7,12,-33,-7,-3,4,-3
1192234,7,-9,-30,14,-1,-5,-27,-5
1200249,-16,9,29,3,3,0,1,-1
1200249,14,-11,2,-3,-3,-4,-3,-1
1215260,4,0,8,7,3,2,30,-8
1215260,-5,-4,16,-6,-4,0,1,-4
1223261,3,8,-2,9,4,-1,-25,-14
1223261,-9,-8,11,14,-4,-4,-18,6
1230262,-10,1,-16,-12,-2,-2,-15,-3
1230262,21,-12,9,4,0,-1,18,-12
1245288,-10,-1,-10,-5,-2,-2,-11,1
1245288,7,10,-12,-11,0,-1,1,2
1252447,-2,0,-10,13,0,-1,-6,2
1252447,-12,-14,2,-17,-1,-1,-2,-2
1268268,-1,8,-12,3,-1,-1,10,-1
1268268,0,-5,0,-9,-2,-2,-10,-2
1275448,10,-1,18,8,-2,-4,5,6
1275448,-6,11,-4,6,-2,-1,3,-1
1282264,-1,-2,-13,2,-3,-1,-10,-7
1282264,16,0,8,-18,0,3,-3,9
1291265,-15,-4,-14,-8,-3,-3,-6,7
1291265,24,-11,-1,21,0,0,22,-9
1304780,-4,11,-14,-30,-4,-2,6,5
1304780,-3,4,8,14,1,-1,-18,-9
1312276,5,-5,-6,5,0,2,10,1
1312276,-8,0,-9,-21,-3,-3,-11,2
1327296,-1,2,-3,7,-1,-2,-2,-3
1327296,-15,-10,-21,2,-1,-2,8,-10
1334291,9,8,-9,-6,-2,-4,-12,3
1334291,-1,7,-5,2,2,1,17,4
1342292,-6,12,10,1,-1,-2,7,-4
1342292,-13,-25,10,-7,-2,-3,-1,3
1357293,-4,-6,3,13,1,-2,-5,5
1357293,10,3,-16,-13,-5,-1,0,5
1366293,13,-8,-4,-2,-2,0,-5,-4
1366293,-13,4,8,-1,1,-1,5,2
1371298,-2,-7,-2,2,-4,-3,-20,-4
1371298,-2,8,6,0,1,1,31,8
1388298,3,-10,-15,-8,-5,-3,-9,0
1388298,4,13,2,7,1,-1,-11,-10
1395347,7,-4,1,2,1,1,41,1
1395347,-8,0,13,-5,1,0,-36,-4
1411192,11,-8,-8,0,-2,-1,19,6
1411192,-60,-6,-4,-2,-3,-1,6,-24
1412999,14,11,3,3,-1,-1,-15,4
1412999,-43,9,-1,-3,-1,-2,-4,-4
1424900,-11,-21,-1,1,-1,-2,-4,-3
1424900,18,4,2,-2,-3,-2,0,5
1431914,-10,-17,-3,-6,-3,-1,-7,-4
1431914,3,2,9,0,-2,-2,-1,-6
1447904,-4,1,-6,-1,-1,-2,-7,-1
1447904,6,8,10,-3,-1,-1,6,6
1455041,-22,-4,-6,3,2,1,2,-1
1455041,18,-5,-1,-7,-4,-5,-21,2
1471707,-10,0,0,-2,-1,-2,33,-1
1471707,4,-1,-3,-3,0,1,4,2
1472708,9,4,13,-1,-2,-2,-15,1
1472708,0,-10,-25,-1,3,2,25,2
1486073,-2,10,1,-1,1,1,-7,13
1486073,5,-1,8,-3,-5,-4,19,-2
1491995,-5,-1,-2,-2,-3,-1,-10,4
1491995,-9,-7,14,0,-2,1,-8,-9
1508518,7,-7,-6,0,-1,-1,-3,-9
1508518,-7,-3,6,1,0,0,-6,3
1514716,2,-2,-8,-1,0,-1,-8,0
1514716,6,0,0,-3,-3,-3,-8,-9
1530725,-5,10,4,-1,1,-1,-4,-2
1530725,9,-2,3,2,1,-1,-7,1
1532725,-2,1,6,0,-1,-2,3,-4
1532725,-4,1,-2,3,5,1,-2,3
1544731,-5,-9,-4,-10,-10,-6,-12,-7
1544731,4,-2,-7,-8,-4,-1,-9,8
1551725,-7,3,-1,5,5,1,42,-4
1551725,10,-3,-4,-2,-1,-1,-2,5
1568012,-15,-3,-2,1,1,-3,-43,-3
1568012,14,-2,-3,0,-3,-1,0,5
1575062,1,0,3,-3,-3,-3,-10,0
1575062,5,-10,-1,1,-1,-1,-7,-10
1591016,5,12,14,2,0,0,7,6
1591016,-5,2,-7,-3,-3,-4,-17,-4
1592764,7,-3,7,1,1,-1,-1,-1
1592764,2,5,-8,0,1,-2,2,1
1606241,-13,-11,3,-6,-5,0,-4,0
1606241,6,-21,-25,-5,-2,-3,7,0
1612241,-2,5,-4,0,0,1,2,-4
1612241,-4,-1,0,-3,-4,-1,-4,0
1627756,-2,8,0,6,3,0,4,-1
1627756,0,3,2,2,0,-1,1,3
1636749,-3,-8,5,-4,-3,-2,17,-1
1636749,-4,-3,-25,-4,0,0,-11,7
1650750,11,-7,-2,1,2,2,25,-14
1650750,-5,4,7,-5,-2,-2,2,-1
1652751,-5,-2,-4,-3,-3,-2,-12,-5
1652751,4,1,12,-2,-3,-2,15,1
1665756,4,10,-3,1,2,-2,0,-1
1665756,-1,-6,-2,1,-1,0,-4,-3
1671751,-8,-3,-6,0,1,-1,-6,-2
1671751,-6,-4,2,-3,-3,0,-2,1
1687964,-1,-5,-5,-2,-2,0,2,0
1687964,-2,4,2,-1,-3,-2,-4,-5
1695005,1,-3,-9,-4,-1,-2,-10,2
1695005,-3,-5,5,1,0,-1,-7,-16
1712958,-2,-6,0,-3,-2,-1,-10,4
1712958,12,6,-1,1,1,2,3,6
1714959,-15,-6,-5,-2,-5,-2,5,-1
1714959,3,-3,-1,-3,-2,-3,-9,3
1726170,-22,-4,-7,-2,-3,-1,-5,-7
1726170,-5,16,3,-1,-2,-2,-17,-1
1731965,1,-11,-2,-2,-1,-2,-3,-5
1731965,2,0,1,0,0,0,41,0
1747966,4,4,2,2,0,3,-14,-1
1747966,-2,-4,-1,-4,-1,-1,16,-1
1754967,2,1,-3,0,0,0,-10,-3
1754967,-7,0,6,-3,-2,-1,-14,0
1771161,7,1,-2,-2,0,-3,7,-5
1771161,0,-3,-4,-2,0,-2,2,0
1777182,-2,2,9,-1,-1,-1,-10,-3
1777182,7,-2,-2,-1,-4,-3,-5,3
1786172,-2,-1,-4,-2,-2,-3,6,1
1786172,-6,-4,0,-1,-1,-1,-12,-13
1792183,0,-4,-5,2,0,-3,-7,5
1792183,-2,9,17,0,0,1,18,-4
1808420,5,-2,-18,-3,0,-1,-15,-3
1808420,-8,-4,9,-2,-4,-4,12,-1
1815210,21,1,-33,-1,0,0,-4,6
1815210,-15,-15,4,0,-2,-2,4,-16
1831218,-1,11,3,-3,0,-2,8,10
1831218,-4,-8,0,-1,0,0,-23,-4
1833220,-6,0,4,0,1,3,22,-2
1833220,12,10,-10,0,1,-1,-16,2
1845219,0,-11,7,-1,-3,-5,-2,-5
1845219,-14,9,4,-2,-3,-3,5,-4
1854219,-6,2,1,-3,-3,-3,-5,-4
1854219,-5,0,-4,1,-3,-1,-17,-3
1868521,-6,-11,-6,-6,-3,-1,13,2
1868521,6,-2,-3,0,-1,-1,-13,2
1875223,2,-1,8,-1,0,1,14,-18
1875223,-20,-6,-16,-3,-2,-5,-24,14
1891222,8,0,4,3,2,3,9,10
1891222,3,-5,-3,1,1,0,13,-6
1893222,3,9,12,-1,-4,-4,-13,-6
1893222,3,7,-29,-4,-3,-3,-6,-5
1905239,-7,-30,6,0,-2,-2,-5,0
1905239,5,-8,1,3,0,1,-3,-2
1914240,-6,-3,-4,-2,-2,-2,-1,4
1914240,3,-6,14,-2,0,1,-8,-2
1928514,-4,14,-2,0,-1,-2,-2,-1
1928514,-2,-5,-6,-8,-4,-2,4,-8
1935248,7,6,1,1,1,-1,-13,6
1935248,4,7,-1,-3,-2,-1,0,1
1951250,-6,-10,-4,0,1,-1,-12,-8
1951250,-3,-10,-1,-3,-2,0,18,-5
1953250,1,-2,-3,0,0,0,-7,2
1953250,-1,-1,7,-2,-4,-2,-4,5
1965512,1,4,-3,-4,-3,-1,18,-9
1965512,1,5,-13,-1,1,0,-12,5
1974255,-3,5,13,1,-1,-2,-4,-9
1974255,-1,-11,2,-3,-1,0,3,1
1988515,0,8,8,-1,-1,0,-9,-3
1988515,5,-13,-26,-4,1,-1,0,3
1995252,6,6,13,1,-1,0,15,15
1995252,-1,2,-8,-3,-3,-3,-9,-9
2011278,11,-1,2,-4,-4,0,1,1
2011278,-2,-2,2,1,1,0,13,2
2013279,-5,10,12,-1,-3,-1,-12,-2
2013279,-1,-18,-22,-5,-1,0,10,-1
2025287,-9,-2,12,-1,-1,-5,-2,4
2025287,1,4,-1,0,-3,-3,-31,-7
2033287,-4,0,-9,1,2,1,36,7
2033287,12,7,4,-2,-3,-3,-1,4
2047293,-6,4,-5,4,1,1,-7,-3
2047293,-4,-3,-6,-18,-5,-4,-14,0
2054289,-4,-6,0,25,-2,-3,2,-2
2054289,-5,-1,-14,-9,1,1,2,-5
2070294,-1,-5,14,11,-2,-2,-20,-3
2070294,-5,21,-38,1,-3,-2,0,-1
2072289,9,-13,-25,-71,-5,-2,6,11
2072289,-9,-12,29,57,2,0,-2,-5
2084290,13,-5,-20,-16,0,-3,-12,-3
2084290,-5,-13,25,-2,-4,-1,4,-3
2093290,1,9,-27,34,-6,3,-1,-15
2093290,-4,8,13,-68,10,2,-8,7
2107841,1,-3,-63,-3,-11,-6,-4,-2
2107841,-10,0,17,41,3,1,20,6
2115307,1,-1,-9,2,-12,-1,-26,-1
2115307,5,5,8,-23,8,3,19,-6
2131418,37,-6,11,-38,-3,-8,-22,-7
2131418,-20,-2,-11,-5,-3,-4,-34,7
2137312,8,1,15,38,-1,5,33,-1
2137312,-11,12,-22,-49,5,-3,1,31
2145312,-8,-23,-17,9,-9,-6,-20,-14
2145312,9,5,0,17,0,0,19,-8
2154383,-6,7,42,94,3,1,23,8
2154383,-5,-7,-36,-39,-4,-1,-16,-14
2168423,-10,11,-10,-57,2,4,58,4
2168423,5,3,20,10,0,-3,-11,-3
2181501,-14,-16,-15,-13,-5,-4,-21,-9
2181501,-4,12,-10,40,-10,-5,-2,1
2191416,-21,-8,3,10,0,0,-9,-12
2191416,12,7,4,-9,1,2,8,-3
2197387,0,-11,6,-31,3,-4,-2,-2
2197387,3,6,4,24,-2,0,0,-5
2205317,-8,6,28,57,4,3,15,4
2205317,0,-16,-23,-54,-6,-2,8,-5
2214017,2,4,-11,-35,2,-3,-17,2
2214017,-10,-21,12,22,-2,0,-9,-13
2228571,16,28,0,27,-1,0,0,5
2228571,-15,3,22,-12,1,2,8,6
2234532,-7,-15,-19,3,-2,-4,5,-11
2234532,-4,-1,1,-6,-4,-2,12,0
2250533,-1,5,12,12,7,8,9,-8
2250533,2,-7,1,4,1,-3,-20,-3
2257526,5,7,0,-34,-5,-3,-10,3
2257526,-41,-8,-17,31,-5,-2,21,-6
2265527,5,-2,4,-14,-2,-2,-3,4
2265527,-7,0,-2,6,1,-1,0,36
2273526,2,1,1,1,4,0,-15,-33
2273526,18,-5,10,-5,-5,-4,-7,-28
2287738,4,-1,-4,-2,0,-1,-3,-9
2287738,-30,-9,-1,-1,-2,-2,-2,-4
2295528,1,-1,-2,-8,-1,-1,-5,22
2295528,8,2,13,3,-2,2,-5,4
2311242,-9,-5,-5,-5,0,0,3,-2
2311242,19,6,3,8,-5,-3,-6,3
2317456,-7,-13,-14,-8,3,1,6,-2
2317456,2,4,11,4,-1,-2,-3,-5
2334457,-12,2,-1,4,1,-1,-4,1
2334457,6,-3,-5,-7,-2,1,3,-11
2335457,-6,5,-3,-7,-2,-5,-7,-4
2335457,3,-12,-7,2,-1,-1,2,-7
2348458,-3,-3,14,-2,-5,-3,-5,10
2348458,0,-3,0,3,-1,-4,-36,1
2355458,5,1,-2,-6,4,7,83,4
2355458,13,2,6,20,-3,-1,-4,6
2371459,-27,-2,-16,-40,0,-1,0,6
2371459,5,5,37,7,1,2,1,-12
2377459,-6,3,-12,14,-1,-3,-40,1
2377459,-1,3,-8,-16,-4,-2,-4,5
2393791,-2,-9,4,18,0,-1,6,-1
2393791,4,5,-4,-5,-2,-2,-2,-10
2396463,-4,-2,6,-3,0,-2,-14,3
2396463,5,-9,1,1,-2,-3,7,4
2407983,-4,14,0,-1,-1,-2,-15,-8
2407983,4,-15,-16,-1,-2,-2,1,2
2414977,4,-8,2,-6,-4,-5,-8,-4
2414977,-10,-4,-6,-2,1,0,17,-1
2430486,26,20,-1,-1,-1,-1,-24,-8
2430486,-3,-9,-2,3,3,4,16,11
2436486,-15,-12,0,-7,-2,-3,-21,2
2436486,1,-6,4,-5,-6,-6,-18,1
2453522,-10,-1,-3,4,-1,-4,-12,-3
2453522,12,11,-7,-4,-4,-2,17,-7
2455505,-5,-4,4,-4,-2,-2,-22,-20
2455505,0,-3,-6,0,0,0,-8,18
2467492,-2,-4,24,3,-3,1,12,-1
2467492,-4,-9,-44,-1,2,0,2,-9
2474492,15,15,34,0,0,-1,1,3
2474492,-1,-6,-16,-2,1,-3,-10,-7
2490528,-5,-1,5,1,-2,0,12,1
2490528,1,-25,-14,-4,-3,0,26,-2
2496488,-16,-10,-3,-7,-5,-8,-12,-1
2496488,9,16,2,4,2,1,5,-3
2514005,-2,-4,-5,0,0,-2,-12,4
2514005,13,12,12,0,0,0,41,7
2515506,3,-3,-10,-3,-5,-1,0,1
2515506,-15,-2,7,-2,-2,-2,-9,-2
2528511,-5,-8,-9,-2,-2,-2,2,2
2528511,-4,8,16,1,-3,-3,-23,-6
2534791,-6,-8,-15,-6,1,1,-2,-2
2534791,7,2,6,-2,-1,-3,-4,-1
2550780,-9,-11,-30,-4,-3,-3,-1,-3
2550780,-10,-1,0,0,-3,-3,-19,-13
2556727,0,-1,0,0,0,0,5,11
2556727,1,2,1,1,-1,-1,-10,3
2574514,-3,-6,-6,-3,1,-1,15,-5
2574514,10,16,16,-1,0,-1,-3,2
2575515,-23,5,-20,-3,-2,-2,-6,-6
2575515,-1,-12,8,-6,-4,-1,-13,-13
2588515,2,-38,4,2,1,2,33,16
2588515,-10,7,-11,-5,-4,-4,-23,-27
2595515,13,12,13,-1,0,0,12,13
2595515,24,2,-13,-1,-2,-3,-1,7
2611391,-19,17,3,-1,0,-2,-8,-1
2611391,-2,-15,-2,0,0,-3,-22,-2
2616732,-6,-5,-6,-1,-1,-1,-4,-4
2616732,9,-5,1,1,-1,0,7,0
2633491,3,6,6,-3,-4,-3,-9,-4
2633491,-1,1,5,-1,-1,-1,2,-1
2635455,1,0,-2,-4,-2,-3,13,-4
2635455,-12,-7,2,2,2,3,10,-1
2648456,3,3,-3,-2,-2,-5,-8,-6
2648456,-5,8,0,-4,-2,0,4,8
2655456,-14,-16,1,-1,-1,2,-6,-10
2655456,-3,5,0,0,0,-2,-22,0
2670498,1,5,3,2,0,2,17,9
2670498,1,1,-2,-3,-4,0,8,-5
2676463,6,5,1,-1,1,1,13,6
2676463,-7,-26,-14,-2,1,-1,7,0
2694458,4,15,-1,-4,-6,-5,-22,-9
2694458,-3,-7,12,3,3,1,-1,7
2695459,12,9,16,1,-1,-1,-8,0
2695459,-4,5,-18,1,0,0,-2,-7
2708398,6,-3,23,2,2,0,7,4
2708398,-3,4,-11,-2,-2,0,5,-4
2715401,-11,-3,3,1,-1,0,-12,-3
2715401,11,5,6,-2,-2,-1,12,3
2730664,-1,0,-8,-2,-3,-2,-8,-5
2730664,-2,-5,-3,-2,-2,0,11,8
2736866,-6,-3,1,-1,0,-3,-19,-9
2736866,-8,-5,1,-1,-2,-1,-3,-2
2753870,-7,8,-5,-1,-1,1,17,5
2753870,1,-1,4,-2,0,-3,5,15
2755666,-1,-18,-12,-1,-1,-1,-8,-12
2755666,-2,-7,3,-2,-3,-1,22,3
2767877,8,-2,-2,-3,-2,-3,-9,-6
2767877,-1,5,-4,1,2,-3,-11,3
2774878,-13,0,-5,-3,-2,-3,-11,-7
2774878,16,5,-3,-4,-5,-3,-11,-2
2790882,-8,0,14,-1,-3,-2,-5,-3
2790882,-4,-8,-29,-4,-1,0,1,1
2796767,2,-5,-5,-1,2,-1,-6,-3
2796767,-13,2,2,1,1,0,-4,-2
2814176,4,-1,-1,2,0,1,-1,4
2814176,12,5,-1,-1,-2,-2,1,-8
2816176,1,-6,-4,-3,-5,-3,1,5
2816176,-5,-4,-5,-1,-2,0,-1,-3
2827183,-8,-14,1,-2,-1,2,-8,-1
2827183,-5,0,4,0,-2,-2,-7,1
2837183,5,-1,-3,-3,0,0,11,-4
2837183,0,5,2,-4,-1,-2,-18,3
2851184,-2,-8,-8,1,0,-1,29,2
2851184,-4,-5,5,-3,-2,-3,-22,-7
2857186,7,6,-5,-1,-3,0,4,4
2857186,-8,10,4,-2,-5,-1,11,-4
2874414,-10,-7,-14,-5,-3,-2,-12,-3
2874414,21,2,6,-1,-1,0,-6,0
2876410,0,3,-17,-1,-2,-3,-15,-4
2876410,-6,-3,0,-1,2,-1,5,0
2888415,2,2,-2,-1,0,0,-6,-5
2888415,-10,-2,-22,-3,-2,-1,12,-1
2897188,-2,-16,-4,-3,-2,-2,-7,-1
2897188,-4,12,10,3,-2,-1,0,-3
2911311,3,0,-9,-2,-3,-2,-3,-5
2911311,-4,-8,-4,-1,-1,-2,-5,-3
2917453,-7,5,2,-1,-2,0,6,-5
2917453,-9,-7,-7,-1,0,-3,-33,1
2934297,0,2,7,4,3,1,69,2
2934297,-3,-2,8,-3,-4,-1,-6,-6
2936297,3,2,-2,-4,-2,-2,-1,-3
2936297,-14,-6,2,-2,-1,-1,-6,-5
2947297,0,6,-2,-2,-3,-5,-32,4
2947297,7,-16,-4,-1,-5,-3,-4,-13
2956298,-3,-5,11,-3,-3,-2,6,9
2956298,2,2,2,-1,-1,1,16,-2
2971481,4,-4,-3,1,0,-1,-19,-4
2971481,-17,0,0,-2,0,-2,5,-2
2977482,4,-2,-5,-1,0,1,-14,-4
2977482,3,2,3,-2,-3,0,10,3
2994478,3,-2,-5,-3,-2,-3,-9,-3
2994478,-9,-10,-2,0,-3,-3,-6,-1
2995300,9,12,10,1,-2,-2,10,-6
2995300,-4,-2,3,-1,1,2,-2,1
3015821,-5,-1,-5,-4,-3,-3,12,-6
3015821,5,-1,-6,0,3,-1,-4,12
3017828,7,4,0,-2,1,1,-3,0
3017828,-3,-3,-13,-3,-3,-3,0,-3
3030831,7,4,28,0,-3,-2,-17,5
3030831,2,5,5,2,3,2,2,8
3036836,-10,-5,10,-2,-4,-2,18,-4
3036836,10,-6,-16,-2,-1,-2,-7,0
3052831,-3,-10,8,15,0,0,-15,5
3052831,-3,13,-5,9,-2,1,-8,-2
3060125,-4,1,-15,-37,-1,-1,0,3
3060125,-3,2,-14,-11,-4,-3,12,-7
3066838,-1,-7,-6,-2,-1,0,-15,5
3066838,-4,4,0,8,0,0,18,-6
3076833,11,-5,-6,12,0,0,-2,3
3076833,-9,-3,-3,2,-2,-2,-3,-3
3090833,-1,1,-10,-4,0,-1,-15,-3
3090833,1,-3,3,-6,-3,-1,26,-8
3096833,-5,2,-3,5,0,-3,-10,1
3096833,2,-6,14,10,0,-1,-6,-7
3113347,-4,-13,-21,-24,-3,-1,27,0
3113347,-5,8,18,-13,2,-1,-19,-6
3119357,0,-1,4,-4,0,2,8,7
3119357,8,2,-20,10,0,-1,4,4
3126358,-5,3,-16,-2,-4,-4,27,-6
3126358,27,-9,5,23,-2,-2,-19,-6
3136358,-46,-8,-11,7,-2,2,5,0
3136358,-1,2,14,-1,1,-3,-13,1
3150396,6,0,-9,-19,0,0,-15,-4
3150396,5,-5,-6,23,0,-3,-5,5
3156359,9,17,17,-35,2,-2,-7,-4
3156359,-8,-17,1,-1,-6,-2,-3,-1
3172360,-6,2,-1,10,-2,0,-4,-4
3172360,-9,0,5,-6,-1,-1,10,3
3179360,5,-11,15,21,-1,-4,-8,-10
3179360,-3,6,3,13,0,0,-22,4
3186361,5,21,5,-32,0,0,5,-1
3186361,-8,-15,-5,-12,-2,1,-5,-1
3196361,4,-19,2,45,1,-1,14,-2
3196361,4,6,-4,-41,-1,-4,-14,7
3211407,-8,-11,-11,10,0,-2,-27,-16
3211407,-7,13,-8,-9,0,0,39,-5
3216568,0,1,-6,-5,-2,-1,-3,7
3216568,7,-1,20,66,0,1,12,-4
3232762,-1,4,-26,-57,-5,-3,-12,2
3232762,-10,-7,5,-11,0,-3,-11,2
3239786,10,8,-2,1,2,1,3,-1
3239786,-15,-2,0,0,0,0,10,-6
3255776,-4,-8,-2,15,-3,-2,-14,4
3255776,6,6,4,7,0,-1,-12,-6
3257574,-1,-11,10,12,2,-1,3,8
3257574,11,1,-24,-12,-3,-2,-12,-7
3270770,3,4,-27,-40,-4,-3,9,-6
3270770,-12,-15,3,-17,-2,-1,-2,4
3276776,7,1,-15,-15,-5,-1,-3,-1
3276776,1,3,15,52,0,-2,2,3
3293578,-9,-24,8,-26,4,0,16,-1
3293578,5,5,3,6,-6,-1,2,-5
3299578,-8,10,-9,-7,-2,-4,-4,7
3299578,0,-16,6,-2,-4,-4,-17,-5
3316123,-1,11,-7,0,1,0,37,4
3316123,-7,0,5,16,2,0,-8,1
3317596,-1,-4,-6,-21,-4,-3,0,-10
3317596,-9,7,-5,-20,-2,-1,0,-1
3330597,8,11,26,109,3,1,4,5
3330597,-5,-7,8,-44,3,0,-1,-8
3336603,0,-26,-6,-44,-2,-5,-36,-18
3336603,-6,7,-17,-10,0,1,51,-4
3352607,0,-4,45,100,-3,2,28,18
3352607,6,14,-2,100,6,4,-7,-1
3359828,-3,-2,5,-81,-3,-5,-9,-5
3359828,4,-12,-50,-92,-10,-8,-30,-4
3375817,-19,1,9,52,-1,-2,-1,-16
3375817,19,-1,-20,45,-9,-1,2,13
3378598,1,16,40,-2,12,5,-1,0
3378598,8,-9,3,-92,0,-3,6,-13
3390828,24,3,-15,-7,-4,-7,-48,-26
3390828,-20,4,2,-7,1,1,24,38
3396824,3,-4,-17,14,-3,-1,-10,1
3396824,-11,-10,19,17,-1,-3,-31,4
3412819,-3,-14,2,-44,1,0,-7,-21
3412819,1,12,1,-24,-2,0,48,11
3419762,5,18,-3,31,-9,-3,5,0
3419762,-4,-18,2,14,1,-1,-8,2
3435751,-2,13,16,-29,-1,-2,-22,0
3435751,-2,-6,-10,-18,1,-2,-14,-14
3437537,-3,9,-2,24,-2,-1,10,9
3437537,1,-7,-30,16,3,2,14,6
3450757,-3,-13,11,-7,-1,0,-5,-4
3450757,0,2,-9,-44,-5,-3,-11,-6
3456750,-3,7,5,22,0,-3,-1,-1
3456750,3,18,13,20,-2,0,-1,-5
3474540,-3,-7,-14,-23,1,0,6,14
3474540,-8,-12,10,-10,-3,-6,-15,-7
3479541,1,-2,-30,16,-1,0,0,-5
3479541,-3,6,13,12,0,0,9,2
3495540,7,-12,-12,-9,-1,0,5,8
3495540,-11,13,1,-9,2,-3,-10,1
3497541,3,-5,1,9,0,3,10,-3
3497541,14,-6,-3,2,-1,0,8,-5
3511338,-22,-1,-10,-14,-2,-1,-9,26
3511338,7,-11,0,-6,-4,-4,-18,-16
3516439,18,-4,12,-2,-2,0,-6,-21
3516439,-33,-10,-5,-6,-4,-2,8,3
3532450,-8,-11,5,3,1,0,15,-13
3532450,-8,6,9,-10,-6,-5,-19,42
3539450,4,4,-4,7,1,-3,8,-41
3539450,-10,12,5,6,-3,-2,-9,-2
3555451,4,-7,-6,-2,-2,-3,-10,9
3555451,-9,-6,-3,-3,2,2,-5,-4
3557446,-4,-6,-12,-5,-4,-2,-8,28
3557446,-2,6,6,5,2,-1,8,4
3570452,3,5,-5,-8,-6,-4,-4,-5
3570452,8,-4,-10,-6,-2,-1,-1,0
3576452,-9,-4,-7,0,-3,-2,-7,3
3576452,1,2,2,3,0,0,1,-7
3594448,4,-8,-1,-3,0,-1,3,5
3594448,2,3,-8,-3,-4,-2,-8,-20
3599453,-7,-8,-5,-1,-1,-2,2,2
3599453,1,0,1,3,1,1,-2,2
3615956,1,8,5,-1,0,-2,-7,0
3615956,-4,-5,-11,-12,-5,-2,-1,-16
3617460,1,-5,-6,4,0,-4,-22,-5
3617460,9,2,4,3,1,3,36,16
3630497,2,5,-3,-2,-3,0,-13,-7
3630497,2,4,-1,-4,-1,-3,6,-8
3636467,-8,-6,-1,2,0,-1,-3,9
3636467,-4,-33,8,-7,-6,-5,-21,-11
3652467,-3,7,-12,-1,-3,-4,-22,-14
3652467,-9,8,15,4,3,5,39,1
3659462,-1,-7,-25,-7,-3,-1,-15,-12
3659462,1,12,25,8,2,2,11,9
3675659,-1,-7,-10,-2,-1,-1,3,3
3675659,-8,-12,9,-8,-4,-4,-21,-8
3677463,-20,7,-5,-2,-1,-2,11,11
3677463,35,5,-3,0,-2,0,1,-27
3690691,3,3,2,0,0,1,18,25
3690691,2,-5,-2,2,0,1,18,-4
3697464,2,-1,5,0,0,1,12,7
3697464,-18,-6,-26,-6,-1,-5,-21,-13
3720896,9,5,5,0,-1,-1,-8,-4
3720896,-6,-13,-9,-6,-4,-3,-20,-12
3722891,0,-7,10,0,-1,0,14,7
3722891,-3,7,3,-4,-2,-2,-9,7
3735893,-5,-3,-2,0,2,-1,-11,-10
3735893,7,5,-11,0,-2,-1,4,7
3737893,-3,-6,6,3,-1,-2,-6,-4
3737893,-5,3,0,0,-1,0,0,2
3751180,14,4,-28,-4,0,1,-4,-4
3751180,-27,-3,-1,-1,-1,0,-9,0
3756901,8,14,23,0,-3,0,7,6
3756901,-10,-12,2,0,0,-1,-4,-6
3773179,8,-2,1,-1,-1,-2,-5,-1
3773179,13,-4,-4,0,2,1,14,3
3779897,-6,0,-30,-8,-7,-8,-30,0
3779897,-11,7,4,2,0,1,31,6
3795897,-9,-5,6,1,-2,-1,7,-4
3795897,7,-4,-7,-1,-2,-3,-16,-6
3797897,1,-6,3,-1,-2,-4,-15,-10
3797897,9,4,-5,-1,-1,-1,10,15
3810452,-8,-2,5,0,2,1,10,1
3810452,3,-1,-2,-4,-2,-1,-3,-3
3819012,0,-4,-7,0,0,1,4,-3
3819012,3,-4,15,-4,-4,-4,-13,5
3833284,-14,-3,-4,-1,0,-1,9,-4
3833284,0,1,11,2,-2,-3,-5,5
3839987,-1,6,-3,-4,1,2,10,-3
3839987,-3,-13,-14,-2,-1,-2,-8,-3
3856988,-12,-8,8,-3,-6,-3,-9,-7
3856988,11,1,-1,0,-1,-3,-3,-9
3858982,6,7,5,4,0,-1,-9,7
3858982,0,7,-21,-7,-2,0,26,-5
3870283,3,-4,1,-4,-1,-5,-27,-4
3870283,-21,-14,-19,-2,1,1,36,0
3878983,-2,1,6,-2,-1,-1,18,-10
3878983,1,2,2,2,1,-1,-22,-2
3893320,1,-1,-3,-1,-1,1,7,-2
3893320,3,-1,-1,-2,-1,-3,-19,-2
3900288,-1,-6,-6,-3,-3,-3,-3,-3
3900288,-10,-2,0,0,-4,-3,1,2
3916296,4,3,1,-1,-2,-2,-2,-3
3916296,-12,-1,1,1,1,2,-12,-4
3918000,-4,-11,-9,0,1,1,8,6
3918000,0,2,3,-1,-2,-3,-15,-6
3930002,-2,14,24,0,-1,1,11,5
3930002,7,-6,-35,0,0,-3,-1,5
3939000,-8,0,2,-9,-7,-5,0,-12
3939000,-10,-6,0,2,2,0,-15,4
3953338,18,-8,-12,-2,1,2,10,2
3953338,6,11,34,4,0,0,-2,-2
3960044,-3,14,-6,3,1,0,-6,1
3960044,-1,-21,-3,-2,-2,-3,-6,-2
3976304,-7,-3,-4,-2,-2,-3,-18,-9
3976304,11,-2,-5,-2,-2,-2,6,4
3978039,-12,-3,4,1,-2,-2,-4,3
3978039,9,2,0,-2,0,-1,-11,-4
3990011,-7,15,5,-2,-4,-3,29,3
3990011,5,-2,1,-5,-3,-1,-6,-8
3999006,-2,-5,3,2,1,0,-4,-4
3999006,-3,1,-7,1,0,-1,1,2
4013013,-2,-9,-4,-2,-3,-3,-1,1
4013013,-2,19,-1,1,0,-1,-2,-2
4020067,8,-14,0,-3,-1,1,5,-2
4020067,-12,-8,-4,-2,0,-2,-17,-5
4036273,-6,-3,-4,-1,-2,-1,2,-6
4036273,-6,-6,3,-1,-1,0,-12,0
4042244,-4,0,-8,-2,-3,-3,-6,4
4042244,13,14,3,2,2,3,-1,1
4050273,-5,-3,-1,-4,-5,-2,8,0
4050273,-5,1,-7,-2,-2,-1,-5,0
4059270,8,-7,3,2,2,0,30,8
4059270,-1,-3,-6,-4,-3,-2,-8,-9
4073275,-2,-2,-5,-1,3,-3,-11,-4
4073275,0,-7,6,-1,-3,-2,3,3
4080062,0,6,11,3,0,-1,0,0
4080062,5,2,-14,1,-2,0,9,1
4096047,0,-5,0,-5,-3,-1,-4,-3
4096047,-11,-5,-9,-2,0,-2,-7,-1
4102319,1,-4,6,-2,-2,-5,-34,-5
4102319,-6,5,-14,-4,-2,0,47,4
4109980,-2,-7,-11,-2,-3,-2,-7,-1
4109980,5,3,2,-2,-3,-3,-5,-6
4118433,0,-2,-5,-2,-3,-1,-19,-1
4118433,7,6,13,2,1,-1,-1,-1
4133436,-3,3,-9,0,-1,-1,-3,1
4133436,-5,-16,4,-2,-1,-2,11,-2
4139435,-1,-2,-8,1,-2,1,11,3
4139435,-5,-2,-1,-4,-3,-1,-3,-4
4156434,-1,-3,5,0,1,0,1,0
4156434,1,4,-3,-2,-3,-3,-13,-4
4161647,4,1,-6,1,3,1,10,-1
4161647,-12,10,-10,-4,-5,-3,-10,0
4170435,-1,-16,10,2,2,1,-3,1
4170435,-5,-16,-4,-2,-3,-3,-4,-4
4178436,-2,-13,-4,-4,0,0,0,-5
4178436,1,1,12,-2,-1,0,25,3
4193437,2,5,-7,0,-1,-3,-17,-3
4193437,4,4,6,0,0,2,26,1
4200437,-6,-1,-4,-2,-4,-2,7,-1
4200437,0,6,-2,-1,-1,0,-6,-1
4216164,-2,-6,6,1,1,0,-7,-1
4216164,1,0,1,1,1,0,20,2
4222173,-5,7,1,-3,-2,-1,-5,1
4222173,-4,0,-2,-2,-2,-3,-5,-12
4239442,16,-2,-2,-1,-2,0,-12,-4
4239442,-1,-4,4,-2,-3,-3,-6,-1
4241173,2,0,-12,-1,-1,0,4,-1
4241173,-11,-1,10,1,3,-4,-12,-1
4253174,13,-4,-13,-6,-3,0,6,9
4253174,-5,-3,1,-3,-1,-1,-10,6
4260437,-3,14,3,-2,-2,-4,-1,-7
4260437,6,6,5,2,0,1,-3,6
4276442,-14,-20,13,-1,-2,0,1,-10
4276442,1,4,-28,-4,-4,-1,-11,2
4282427,-5,-8,-6,-2,-1,0,26,-1
4282427,0,-12,-1,0,1,-2,-11,-1
4299441,-6,19,18,1,-2,-2,-4,-2
4299441,-2,5,-3,0,-1,0,7,0
4301176,-2,3,-2,2,0,-2,-23,-3
4301176,5,-19,-8,-4,-5,-1,0,-8
4313189,-18,0,-5,-2,-2,-1,6,5
4313189,5,1,-3,0,1,-3,-14,-7
4320491,8,-3,7,0,-1,1,-2,-2
4320491,-9,6,2,-2,-3,0,-1,4
4335482,14,11,-2,0,-1,-2,-14,-5
4335482,9,5,5,1,0,0,-6,2
4343482,-10,-19,3,-5,0,-2,7,4
4343482,-5,1,-4,0,0,2,-5,-1
4359483,-7,7,2,0,-2,-4,-14,-4
4359483,5,4,-2,-2,-2,0,-2,-2
4360484,-1,-8,4,0,-2,-2,-6,1
4360484,3,-13,2,-2,-2,-1,1,-5
4372771,-4,7,-21,-5,0,0,8,7
4372771,-4,-10,-9,-4,-3,-2,-9,-4
4379485,-2,9,28,35,2,-1,-6,0
4379485,-1,1,-15,-35,-3,-5,-24,-3
4395486,4,-2,0,2,2,1,39,4
4395486,-2,2,0,-2,-1,1,-1,-3
4403776,-15,-11,-13,-18,-3,-3,0,5
4403776,25,21,0,23,1,0,-17,-12
4419561,-25,-17,36,14,2,-2,5,-4
4419561,-5,6,-14,-28,0,1,-6,-1
4421561,6,-3,-19,8,-2,0,-4,-3
4421561,-5,-16,0,14,-3,-4,22,14
4432565,3,-4,-3,13,1,-2,-26,-14
4432565,-5,-1,3,-26,0,2,28,1
4439569,-2,5,-4,-7,-1,-2,-16,-7
4439569,-9,5,-14,17,0,0,-2,6
4455605,8,-7,15,3,-4,-1,3,-3
4455605,-4,-13,10,-26,-1,-4,-26,-18
4462564,22,7,17,17,-1,-3,14,-3
4462564,-36,7,-11,22,3,3,25,14
4478716,-9,-5,7,-30,-7,-2,-6,-1
4478716,-5,-17,-20,8,-3,-4,-23,-8
4480566,0,-8,-1,7,-2,1,18,-2
4480566,6,-4,13,1,2,-3,3,-5
4493565,3,16,-25,71,-3,1,-9,-4
4493565,-4,-7,-12,-74,6,4,6,4
4500566,-8,-2,-58,-88,-6,-4,2,-5
4500566,5,0,14,66,-7,-1,-10,-11
4516084,0,3,-16,-76,6,-1,-3,4
4516084,6,-5,-56,-13,-15,-8,-2,-10
4522620,1,11,52,65,7,0,-2,13
4522620,9,-15,14,75,2,3,11,-4
4539583,-11,-4,9,-91,4,3,8,10
4539583,-13,-4,-33,33,-11,-14,-56,-26
4540610,-4,9,-9,17,-4,2,26,-11
4540610,7,-1,-30,-5,-7,-1,18,46
4553852,-1,-18,33,38,-2,1,-6,-6
4553852,-4,-7,42,24,11,3,21,7
4559821,-2,8,-34,-31,-12,-6,-36,-14
4559821,2,4,22,-26,3,-1,-9,-11
4576585,7,4,-20,-18,-3,0,16,-1
4576585,0,7,44,13,-1,-1,-4,4
4582622,-1,-8,6,7,4,1,-1,-2
4582622,3,2,3,-42,-1,-3,-2,-7
4599587,-3,12,-9,7,-3,-4,-14,-2
4599587,7,-12,19,22,-4,0,23,-1
4600597,5,-8,18,42,4,1,1,12
4600597,-6,0,-20,-83,-2,-3,-5,-8
4613097,-12,6,-21,18,-5,-7,-21,-12
4613097,0,3,11,29,2,2,16,21
4621605,30,-9,9,-17,-1,-2,-11,-11
4621605,6,-5,-17,-12,1,0,-1,-14
4635648,-5,17,-5,24,-1,0,26,6
4635648,-36,-6,0,5,-3,-1,-6,40
4642942,20,27,22,-15,-5,-4,-14,18
4642942,-36,-25,-36,-4,-2,-1,-10,-57
4659607,-6,-27,-7,8,0,-3,-11,-27
4659607,27,15,4,5,2,1,6,16
4660610,-16,-20,-25,-14,0,0,10,19
4660610,8,34,19,-5,-5,-4,-11,-20
4681608,8,-11,12,7,3,5,10,-8
4681608,-13,-6,-12,0,-2,-2,-5,-20
4682609,4,1,6,-3,-2,-1,1,13
4682609,13,-4,-10,-8,0,-2,2,19
4695610,-2,3,-7,-2,-6,-4,-3,4
4695610,6,7,5,8,1,2,5,3
4703397,-7,-2,3,-5,1,0,-1,-7
4703397,-7,-4,-4,-7,-3,-4,-4,8
4719028,-8,-4,-8,1,-2,1,2,3
4719028,15,2,0,6,1,1,-1,-2
4720686,-15,3,-5,-6,-2,-1,2,-13
4720686,-4,-17,7,0,0,-1,-7,0
4733687,7,3,-13,-8,-9,-5,-4,10
4733687,2,3,6,14,1,-4,-13,-14
4741756,-14,-6,-24,-11,-6,-2,0,-18
4741756,1,-6,1,-27,-2,-2,28,17
4755724,-6,-2,-9,4,1,1,2,5
4755724,-2,6,7,-1,0,1,8,-7
4761689,-4,-6,0,2,2,1,-5,-2
4761689,4,1,8,6,1,-1,-16,6
4778689,7,5,12,15,0,-1,3,-4
4778689,-9,-7,-2,-28,-3,-2,-7,-13
4780690,-7,-3,3,5,1,-1,-2,-2
4780690,10,16,16,5,1,0,7,7
4792695,-4,-10,0,-3,1,-2,1,-4
4792695,9,7,-6,14,0,-1,-5,-2
4801690,-2,-23,-1,-7,-3,-1,3,3
4801690,3,9,-8,-7,-2,-2,-9,-11
4815697,-3,-10,13,0,-2,1,-10,1
4815697,-3,8,-12,0,-2,0,4,5
4829702,-23,-4,-9,-7,0,-5,-37,-15
4829702,14,-5,3,8,0,3,27,9
4838703,5,7,0,-2,-2,-2,-7,3
4838703,14,-4,3,-1,-1,-2,-4,-7
4840703,-47,5,-1,-2,1,-1,-4,1
4840703,1,-8,4,2,-4,-4,-33,-9
4851704,16,8,-6,-4,1,-2,5,2
4851704,-7,-6,-2,-1,-1,1,7,2
4861704,16,-2,-5,1,-3,-2,-10,-4
4861704,-12,-2,4,-4,-4,-3,-4,-4
4875991,-5,-6,-21,-6,-3,-2,15,7
4875991,-6,3,-5,2,-1,-4,-4,-1
4882960,35,9,10,5,2,1,16,-7
4882960,-28,-7,-7,-1,0,-1,-3,-5
4898964,8,-10,-5,-4,-2,-1,-2,-3
4898964,-11,-6,-3,0,-1,-3,-2,2
4900740,4,4,-1,-4,-3,-1,2,4
4900740,0,-1,4,-2,-1,-2,-4,2
4921109,1,1,-2,3,1,1,28,-15
4921109,-7,-4,-11,-3,-4,-2,-18,0
4923132,-11,-1,7,-3,1,2,54,9
4923132,30,0,3,1,0,-1,-10,-4
4936129,-12,11,3,-1,-1,-1,-15,1
4936129,2,-17,6,0,0,2,3,-3
4943126,-5,0,-6,-3,-3,-2,-13,-7
4943126,-2,-5,-3,2,0,-2,-8,4
4959128,0,-2,4,-2,-4,-3,-10,2
4959128,-1,2,3,-4,-2,-2,6,-2
4965140,16,2,-14,-1,0,-1,-10,0
4965140,-13,1,14,-2,-1,0,2,-2
4973133,1,-1,28,4,0,-1,-8,4
4973133,-2,3,-2,2,1,0,10,5
4982122,26,-4,-10,-3,-2,0,-2,-3
4982122,-14,-20,-6,-3,0,-1,2,-4
4995921,-6,2,-8,-4,-2,-1,-12,0
4995921,2,3,1,-3,-3,-1,-4,0
5003213,-3,5,3,-1,-1,-1,0,0
5003213,-3,-10,-2,0,1,3,55,-5
5018214,1,5,-4,2,-1,0,-19,1
5018214,9,-2,-7,0,1,-2,27,1
5025221,-9,-5,1,-2,-1,0,-24,-10
5025221,-15,2,6,-1,-4,-3,-17,2
5032222,-5,6,0,3,3,-2,-1,3
5032222,0,-12,-7,-1,-2,0,-1,-4
5042316,-6,2,-3,-2,-2,-2,-3,2
5042316,5,-1,-1,0,-2,0,-4,-2
5056341,-2,-8,-1,-8,-3,-2,1,-4
5056341,-20,-3,11,0,-3,-2,-12,-2
5062223,-4,2,0,-2,0,-2,5,-1
5062223,4,0,-12,0,0,-1,-14,1
5078339,2,-3,-14,-4,-3,-1,-2,4
5078339,3,7,-4,0,2,2,8,5
5085416,-10,-5,-1,-3,-1,0,-3,0
5085416,8,-15,-2,0,-1,-1,-10,-6
5093414,23,-1,-7,-2,-1,-4,-7,-3
5093414,-44,-1,0,-5,-5,0,25,2
5101226,-5,0,2,1,-1,-3,-3,-3
5101226,0,11,-8,0,-1,-2,-18,-3
5116236,7,-8,19,-2,-5,-3,-12,-7
5116236,3,-9,-43,-4,-1,1,-4,-1
5123416,-5,3,12,-1,-2,-3,0,-6
5123416,-8,0,-4,-2,-2,-1,-1,5
5138244,13,-1,-10,1,1,-1,-3,-4
5138244,-8,3,7,-1,-1,-1,-2,-6
5145244,1,-8,-7,-2,-3,0,0,2
5145244,12,-1,-2,-1,1,-2,-5,3
5161412,-3,-4,1,1,0,0,8,9
5161412,1,11,-3,-3,-4,-5,-19,-18
5163246,-12,-8,0,4,0,0,15,6
5163246,10,-6,-1,-3,-3,-4,-14,-3
5176412,-5,5,-6,1,2,5,16,4
5176412,21,-3,8,3,1,0,23,12
5182547,-12,4,-6,-4,-4,-2,-18,-7
5182547,3,10,-11,-2,-2,1,-16,-2
5198429,-21,-9,-12,-2,-1,0,13,0
5198429,12,-1,4,0,0,-1,-20,-4
5205345,7,8,4,0,1,0,12,-7
5205345,-4,-12,-3,-3,-3,-2,-11,1
5221413,-8,-3,1,-1,-1,-2,-8,-9
5221413,3,-4,4,0,-2,-1,-2,0
5222351,9,-4,4,-3,-4,-3,-6,1
5222351,-19,12,-5,0,0,-1,4,-4
5235358,-1,-2,2,0,-3,0,17,-5
5235358,-5,-14,-9,-2,-2,0,0,7
5243410,-3,-8,-4,-6,-5,-5,-12,3
5243410,9,-3,3,2,-2,-2,-3,-5
5258407,-13,4,-4,-3,-1,-1,5,-1
5258407,4,11,7,1,-1,-3,-20,-1
5264353,-1,-6,0,1,-1,0,26,2
5264353,-5,9,6,2,1,0,-1,1
5280354,-1,1,2,-4,-4,-3,-19,2
5280354,-2,-7,-24,-6,-3,-2,15,-2
5282354,20,-3,-8,-3,-1,1,-13,1
5282354,-53,-6,4,1,0,-2,12,-6
5295378,-4,11,4,0,0,-3,-14,-3
5295378,-2,-1,12,-3,-4,-2,0,3
5303409,1,-4,-8,-1,1,0,10,-1
5303409,13,-3,-8,-4,-3,-2,7,2
5318199,12,3,8,2,1,0,-5,0
5318199,-9,-5,3,0,-2,-2,-16,-10
5325409,-2,12,2,0,-2,-3,3,1
5325409,-4,-9,6,-1,0,2,6,-1
5341207,-4,2,-26,-6,-5,-5,12,2
5341207,9,-1,11,-1,1,-1,-18,-12
5343207,-6,-14,-9,-2,-1,-1,-3,4
5343207,19,4,0,3,-2,-2,13,-1
5356406,-7,-2,6,3,1,0,0,2
5356406,-2,3,-7,-1,-1,-3,-10,-5
5363209,-6,3,0,1,1,0,18,2
5363209,-1,3,11,-3,-2,-2,-10,-2
5378404,10,-7,-5,-1,0,0,1,1
5378404,-1,10,3,-1,-3,-1,10,1
5385405,-6,-8,-3,-4,-2,-2,-22,-5
5385405,5,-12,-15,-3,0,2,5,2
5401404,-4,-1,12,0,-2,0,9,-8
5401404,5,5,3,1,1,-2,-2,-1
5403453,7,9,7,3,0,0,-3,-6
5403453,-9,-4,3,-4,0,-1,-15,10
5416220,-2,1,-9,0,-1,0,13,-6
5416220,-2,-11,6,2,0,2,-4,1
5422739,0,-7,-8,-2,-6,-4,-7,-7
5422739,2,13,0,-1,-2,-2,-2,0
5437746,0,-5,-2,-1,0,0,-23,0
5437746,5,6,5,-1,-5,-2,3,-2
5444969,-4,3,-2,0,0,0,0,0
5444969,14,-8,-2,-1,-3,-2,-6,-1
5460960,-16,-9,11,0,0,0,-18,-3
5460960,15,1,-26,-3,1,-2,0,-10
5462739,-10,-19,-7,-2,2,2,-2,2
5462739,10,18,5,1,-3,-3,9,-1
5475999,-11,-6,0,-3,-3,-1,-2,-2
5475999,-8,-8,6,2,-1,-1,11,5
5483003,-2,0,-4,0,-2,-1,-14,-14
5483003,-5,0,-5,-1,-1,-3,-3,1
5497833,-2,-5,-6,-1,-1,-3,19,2
5497833,-2,13,17,1,0,2,-14,-1
5505229,-11,-12,-20,-6,-1,-1,-9,5
5505229,-1,11,1,1,0,1,12,-3
5521953,-2,-13,-3,-2,-3,-6,-18,-9
5521953,-4,-5,-8,-8,-4,-6,-11,1
5523684,2,-9,17,1,0,2,23,1
5523684,-3,-6,2,0,2,0,-8,-3
5535691,2,9,-5,-2,-1,2,14,-5
5535691,2,-6,5,1,0,1,7,-1
5542686,13,9,8,1,-1,-2,-13,3
5542686,-9,-2,-11,-2,-3,-1,-15,-10
5557897,0,3,12,2,0,0,9,4
5557897,-4,0,-5,-3,-1,-4,3,0
5564918,3,6,-6,-3,-3,-3,-12,-3
5564918,-4,-15,-6,-2,0,1,28,-2
5580687,-7,-1,-2,-1,-3,-3,-13,-4
5580687,1,-8,-5,-2,-3,-2,-11,2
5582688,-2,15,11,5,2,-1,-2,-11
5582688,-9,8,-5,-5,-3,-3,5,7
5595695,-2,-29,-4,-2,-4,-3,-24,-2
5595695,-5,2,-6,3,0,-2,24,3
5603064,0,-9,7,-6,-3,-4,-8,-4
5603064,-3,-2,6,2,0,-2,-6,-6
5618073,-5,6,-11,-5,-4,-3,-17,-1
5618073,4,-1,5,1,-4,-3,-15,-3
5624581,-2,1,-3,6,1,1,19,6
5624581,-1,2,-2,-1,-5,-2,-6,0
5647590,4,8,-17,-23,2,2,1,-1
5647590,-5,-2,8,7,2,0,-8,-11
5648582,1,-7,-2,-3,2,0,13,-2
5648582,3,-6,1,-22,-4,-3,-12,-8
5662583,17,9,1,36,1,-1,14,-9
5662583,-45,-7,-2,-2,-1,3,13,10
5663585,1,2,-22,-16,-2,-2,-9,-5
5663585,8,-8,7,26,-1,-3,-28,-13
5678584,-11,-2,3,-31,-3,0,40,2
5678584,4,5,-4,-5,1,0,-10,-4
5684591,5,2,-2,28,-5,-4,-8,-2
5684591,5,-4,-21,-32,-2,-1,13,11
5700623,2,13,22,20,-1,-2,-21,2
5700623,-5,-13,-1,2,0,-2,1,-4
5701587,-11,-6,-8,-29,-5,-3,-12,-3
5701587,5,8,10,2,-1,-1,-13,3
5722612,-1,-14,-8,7,-2,-1,-3,-10
5722612,8,-2,0,-11,3,2,17,1
5723606,-3,0,-2,-4,-1,-3,-18,-6
5723606,-12,-8,23,13,-2,-4,-33,-6
5738608,-3,10,0,12,8,7,50,-3
5738608,16,1,-6,-56,-8,-2,-6,5
5744607,-9,-6,-21,45,3,2,28,-5
5744607,-5,-1,26,42,-3,-4,7,9
5760679,0,-4,-102,-104,-13,-5,-35,-1
5760679,-13,-4,36,36,3,-4,-22,4
5761607,17,-5,31,67,2,2,6,-2
5761607,-8,7,-27,-55,1,2,28,4
5782609,1,-5,52,127,1,-3,-10,-5
5782609,19,-2,-70,-128,-9,-1,13,-2
5783608,-5,-3,-10,-22,2,-5,-22,7
5783608,6,4,-1,45,-3,0,15,-14
5799609,-3,-3,34,63,-2,-5,-38,19
5799609,4,1,-9,-62,5,-2,4,-13
5805050,-17,0,0,24,-2,1,-29,-15
5805050,16,-6,11,45,4,3,10,34
5820787,-1,9,-20,-52,-8,-3,-13,4
5820787,-3,0,40,44,7,-1,8,-6
5821558,-5,4,11,-37,-3,1,-14,5
5821558,-11,0,-15,5,0,0,1,-14
5842771,10,-4,-13,-16,-1,0,5,2
5842771,-18,-29,26,98,1,1,3,3
5843559,-2,6,-44,-33,-2,-3,2,-1
5843559,11,3,-19,-95,-5,-1,1,-7
5858560,-11,-1,9,-6,4,-2,9,0
5858560,0,9,-5,14,-4,-1,-3,-2
5864561,6,5,21,22,-4,-1,14,8
5864561,0,-5,-19,27,0,-2,-7,-6
5880793,-12,-16,-43,-69,-1,-1,12,-10
5880793,-2,2,9,33,-4,-5,-33,-18
5881562,17,13,5,-23,-3,-3,11,22
5881562,15,3,5,-2,2,6,40,8
5902783,-20,-5,14,-10,1,0,-31,-10
5902783,-18,-12,-8,5,-4,1,40,19
5904051,1,-2,-4,-13,-2,0,-15,-14
5904051,-35,7,-8,-9,-1,-5,-29,-19
5919294,52,7,26,17,1,0,14,12
5919294,22,16,-3,-1,-3,-2,-27,0
5924300,-6,2,7,-4,2,0,13,3
5924300,-21,-24,-23,-6,-2,-2,-7,8
5940295,12,4,4,-3,2,-1,0,2
5940295,-13,-12,7,-1,-2,-2,-5,-5
5948295,8,-19,-16,-11,-2,-3,2,-20
5948295,5,4,10,0,-2,-2,-11,-5
5963297,6,1,3,3,0,1,15,0
5963297,-10,15,-5,1,0,-1,1,6
5964297,-3,-20,4,-7,-6,-2,-3,-18
5964297,8,2,2,1,0,-1,21,-2
5978311,-36,-5,6,-2,-4,-3,-3,-3
5978311,6,7,-1,4,3,2,2,0
5985351,-6,-1,-8,-5,0,-2,-3,-2
5985351,-4,-7,-5,-6,-2,-3,-14,-5
6000346,2,12,5,0,0,-2,8,7
6000346,3,-13,-5,0,-1,-2,-4,-3
6008091,-7,3,-4,-4,1,1,15,4
6008091,-3,-4,4,1,1,0,-1,2
6022611,11,-5,-1,-1,-3,-1,7,1
6022611,-5,13,7,-1,-2,-1,-18,-7
6023611,-16,0,-18,-1,-2,-2,-3,8
6023611,3,-9,1,-2,2,0,9,9
6038611,-2,-1,0,-1,-4,-1,-8,-10
6038611,0,3,-10,-8,-7,-5,-6,-1
6045612,-13,-15,7,-1,1,2,15,7
6045612,18,4,13,2,-1,-3,-19,0
6059619,-11,-3,1,1,0,-2,-12,-22
6059619,7,-2,-12,-2,-2,2,18,6
6067619,3,2,4,3,-1,-1,-30,0
6067619,-6,4,20,0,-1,-3,8,-5
6082829,-5,-14,-3,-2,0,0,8,0
6082829,7,2,-10,-1,0,-3,0,-4
6083613,0,2,8,-4,-3,-2,-12,-1
6083613,-3,8,3,-4,-2,0,-3,-9
6098614,-5,-15,-4,-3,-2,-4,-12,1
6098614,28,-7,-1,-1,-3,-2,0,-3
6105209,-25,0,-15,-2,-1,-1,8,2
6105209,-32,2,0,0,-1,-2,-10,-9
6120347,21,14,-2,-3,-2,0,12,8
6120347,-3,2,-5,0,-2,-2,-21,8
6128205,27,-1,14,-1,-1,3,9,-11
6128205,-21,-19,-21,-7,-7,-5,-26,0
6143381,-16,-12,1,-2,-1,-1,10,-1
6143381,-13,10,3,2,0,-2,-2,-4
6143381,12,10,0,0,2,-2,3,5
6143381,7,-1,3,0,-4,-3,0,-1
6158206,-2,0,-8,-1,1,2,-4,-1
6158206,-4,0,-4,-1,-2,-2,6,-3
6165207,-8,-8,7,-3,-4,-3,0,0
6165207,12,-6,-8,-1,0,0,-11,-2
6180208,-7,15,1,-1,-2,-2,1,1
6180208,-7,-23,-2,-3,-2,-1,3,7
6188207,-7,17,-6,1,0,-2,-11,-17
6188207,8,-13,-2,-4,1,2,22,16
6203447,-7,1,1,-1,0,-2,4,-8
6203447,-8,-5,-9,-2,1,-1,-11,0
6203952,2,0,4,-6,-6,-7,-1,3
6203952,7,6,2,1,0,1,2,-1
6218955,-20,-4,0,1,-1,-4,-15,-2
6218955,2,7,9,0,1,2,-1,-5
6224463,0,-14,-9,2,-1,-2,-19,6
6224463,3,1,-10,-1,0,0,35,-1
6239754,-1,0,-10,-5,-3,-3,-2,17
6239754,0,6,12,2,2,1,5,-9
6247465,-3,-9,-6,-1,0,-2,-20,-3
6247465,1,5,7,4,2,0,-10,-8
6262465,-3,-13,-2,0,-1,0,-14,0
6262465,-3,10,-3,-2,-3,-1,31,-11
6263464,-6,-7,7,0,1,1,5,0
6263464,24,-5,-6,0,-1,-1,-12,-4
6278465,-35,5,12,-1,0,0,0,-5
6278465,-3,-12,-13,-3,-2,-2,-8,-3
6284675,8,-3,3,-3,-1,-3,9,2
6284675,-24,-1,-5,-1,0,-3,-12,-9
6299677,13,6,6,-1,0,-1,10,-4
6299677,7,-3,-20,-2,-2,1,10,4
6308270,-4,10,4,-1,-2,1,3,4
6308270,-2,-6,-1,-3,-3,-3,10,0
6322479,17,2,-3,2,3,1,8,-3
6322479,-7,8,-1,-2,-4,-4,-8,0
6323190,-1,-17,3,-1,-1,-3,-10,3
6323190,-5,2,-1,0,-2,-3,-5,-12
6338192,27,-2,-8,-4,-5,-1,10,-4
6338192,-5,-5,3,-1,1,-1,-6,0
6353193,-4,4,-2,-2,-1,1,13,1
6353193,1,2,4,2,3,0,-20,1
6360341,-4,-5,-2,-3,-4,-1,8,-3
6360341,6,-4,-1,-3,-2,-3,-4,-3
6368372,10,8,2,2,0,0,-4,2
6368372,-11,-8,-5,-1,-3,-3,4,1
6383331,20,5,2,-2,-2,-1,-18,-6
6383331,-2,-7,-4,2,2,2,3,6
6383331,-2,0,-1,0,0,0,11,-2
6383331,-23,9,2,-2,-5,-1,-4,-2
6398195,-3,-4,-17,-5,-2,-4,-26,-2
6398195,4,-13,0,-4,1,1,31,-6
6405488,-15,7,1,-1,-1,-3,-10,-4
6405488,10,3,-1,-2,-2,-2,9,10
6419849,11,-11,-2,0,-3,-2,-8,-2
6419849,-35,4,5,0,-2,-3,-18,9
6427862,2,-1,-5,-2,-4,-1,7,0
6427862,-7,0,-4,-3,-1,0,5,-1
6444157,-4,-2,14,3,2,-2,-5,0
6444157,4,-9,-17,-1,-1,-4,-14,-5
6450140,2,-2,-3,-1,-2,-2,3,0
6450140,-12,10,2,-2,-1,0,-3,6
6458857,3,-2,2,1,0,0,-12,-11
6458857,6,2,1,2,2,4,24,1
6464857,-5,11,4,-2,-1,1,3,-2
6464857,10,-15,0,-2,-2,-4,-11,-6
6479859,-19,-1,-5,-2,0,2,19,0
6479859,4,0,-2,-2,-2,-3,-21,-1
6495859,-17,2,-9,-3,0,-1,23,-2
6495859,4,-19,3,-2,0,1,-12,-6
6503155,0,2,-1,-1,0,3,25,9
6503155,4,9,14,1,-1,-5,-27,2
6504441,-7,7,7,-1,-1,-2,9,-7
6504441,-2,4,-2,1,2,0,-19,-5
6518872,-12,-15,-4,-2,-1,-4,2,-1
6518872,14,-4,-3,-4,-7,-3,2,0
6525315,7,-2,-4,-2,-5,-3,-12,-7
6525315,0,3,1,0,0,0,9,0
6540317,1,2,-3,4,3,0,-15,-2
6540317,0,-1,-2,-3,-2,-2,-6,-1
6548168,4,3,0,-1,2,2,20,-7
6548168,7,-20,-10,-2,-3,-2,2,3
6563170,-9,24,6,0,-2,-3,-8,2
6563170,-1,-5,-1,-2,-2,-4,2,-9
6564170,-13,-24,-6,-1,0,-1,-17,-3
6564170,3,-2,-4,-4,-4,-3,0,-3
6579171,3,-7,-4,-3,1,1,30,3
6579171,-7,8,3,-1,-3,-2,-9,-5
6585171,7,4,0,0,0,-1,-21,2
6585171,7,3,10,2,4,6,25,6
6600172,-6,6,3,0,-1,-1,-15,-3
6600172,10,-4,6,0,-1,2,15,1
6608189,-32,2,8,4,1,-1,-9,-6
6608189,5,6,12,-1,-4,-1,-3,6
6623120,0,-1,-36,-9,-4,-1,2,-6
6623120,3,0,-6,0,1,0,-1,-1
6629985,9,-4,3,-1,-3,-2,-1,-2
6629985,0,-4,-4,-3,-2,-6,-6,4
6638986,-1,3,8,2,0,-1,-2,0
6638986,-10,-4,0,1,-1,0,-21,-9
6644992,8,-13,-8,-1,-1,0,28,4
6644992,-2,10,-10,-4,-3,-2,-5,0
6660289,15,1,1,-1,-1,-3,-9,2
6660289,-2,-9,-1,-1,0,-3,-14,-12
6668334,1,4,1,-5,-2,1,-1,3
6668334,-15,6,-4,0,-2,0,26,-3
6683283,1,-14,12,1,0,-2,-19,5
6683283,-1,16,6,-1,-1,0,-9,3
6683989,11,-14,-11,0,0,-2,-14,2
6683989,-5,1,1,-1,-2,-3,-3,-5
6698990,-10,-9,6,-1,-2,-1,-9,-2
6698990,2,4,-14,-1,0,-3,7,-5
6705325,7,1,7,-3,0,-3,-8,1
6705325,1,11,12,-1,-1,1,-5,-2
6721593,-8,-13,-27,-3,-3,-1,-1,-6
6721593,-10,-20,-2,-1,0,0,2,-3
6727965,5,13,1,0,-2,-3,8,5
6727965,-9,-9,-5,-3,1,-2,7,-4
6742597,-5,-6,6,0,-2,-2,-6,-3
6742597,4,7,-2,0,-1,0,5,5
6743596,-13,-6,-4,-2,-2,-1,-27,-2
6743596,26,1,-2,2,-1,-1,8,-11
6758596,3,0,2,-1,-1,1,-10,8
6758596,-4,-1,-6,-4,-2,-2,21,3
6764702,7,1,0,-2,0,-1,-7,2
6764702,-16,-4,-5,-1,-1,-3,-32,-10
6781596,11,4,12,0,-1,1,15,10
6781596,-13,-2,-2,2,-1,-1,-2,-6
6787895,9,8,1,-2,-4,-3,6,6
6787895,-11,-6,-2,-2,-4,-2,1,1
6802883,1,-1,-1,-1,2,0,-13,-12
6802883,-2,-1,5,1,-2,0,-14,8
6804105,-7,-2,-6,-3,-1,1,11,-6
6804105,2,8,4,1,1,-3,-10,0
6819107,-13,9,4,0,-2,-1,6,-4
6819107,10,-11,-18,-3,0,-2,-9,-1
6824622,2,-8,0,0,-2,-2,-7,-4
6824622,3,3,-1,0,0,1,8,-5
6841627,-5,-3,-6,-1,-2,-2,13,2
6841627,11,-5,8,1,1,3,8,-1
6847619,-45,1,-16,-6,-3,-4,-26,-6
6847619,0,-2,-6,-4,-3,-4,-4,-3
6862619,-1,6,5,-1,-1,-1,27,4
6862619,-8,-3,7,1,-2,-3,-15,-2
6869903,8,-4,1,0,2,0,28,4
6869903,0,-5,-10,-2,0,-3,-19,3
6879620,-4,-2,-4,-1,-2,-3,-8,3
6879620,12,-9,-12,-5,-3,-1,9,-4
6884905,2,15,15,2,-2,1,-5,-3
6884905,-7,7,-5,16,3,1,3,-1
6901620,4,-21,2,-15,-2,-2,1,-8
6901620,-7,4,5,12,-1,-2,1,-1
6908209,2,-8,-23,-39,-1,0,-2,-10
6908209,-3,0,12,-25,-5,-3,-15,-1
6923027,-4,20,-10,15,7,1,2,10
6923027,-5,-22,10,12,-1,-3,-17,5
6929725,2,-2,-26,-49,-1,2,8,2
6929725,4,-4,23,69,-5,-1,-4,-6
6945726,5,4,-6,-40,0,1,34,21
6945726,-11,19,7,5,0,-3,-13,-9
6946725,3,-9,21,-15,4,1,-15,5
6946725,19,-10,-12,-35,-3,-2,0,-3
6961726,3,2,29,83,-2,0,-16,-11
6961726,-19,2,-30,-95,-3,-2,-2,-11
6968025,17,-8,41,107,-2,-7,-31,2
6968025,2,14,18,95,2,5,45,8
6983023,-21,-18,-12,59,3,-2,-30,-9
6983023,3,4,-10,-75,-2,-2,33,8
6990028,-1,-2,-16,19,-3,-3,-17,-16
6990028,-13,-11,-30,4,-4,-1,-1,-1
7013030,3,13,10,6,2,4,25,6
7013030,-6,-10,15,-70,-2,-1,-15,0
7014018,-15,-1,23,63,11,-1,2,-20
7014018,16,1,-19,-28,-7,-6,-23,-17
7021822,30,8,12,18,2,-1,10,21
7021822,3,9,-30,-17,-9,1,-6,7
7027826,-18,-12,28,72,-3,-7,8,-7
7027826,-7,-10,-33,-43,-3,-3,-4,-8
7043123,-9,-3,0,31,0,-1,-13,-17
7043123,3,-9,-11,0,-6,-3,-2,2
7050107,12,9,-9,-11,0,5,27,10
7050107,-2,16,26,34,6,0,0,0
7066123,-3,-11,-4,-107,-9,-6,-14,-6
7066123,-6,6,-4,61,-1,-1,3,-1
7066821,8,-17,-13,-21,-1,2,2,-3
7066821,-24,13,-10,-19,1,2,-5,6
7081823,-7,-40,-12,-31,-9,-8,-28,-12
7081823,4,6,30,25,6,-1,-1,-5
7088120,12,10,-4,-35,-1,2,44,16
7088120,2,37,6,-5,5,0,-16,2
7102830,8,-23,-12,-2,-2,-2,21,-1
7102830,3,-27,6,34,-2,0,-8,-7
7109842,-51,0,-30,-22,-4,-5,-28,-9
7109842,0,-14,-6,-12,-2,-3,-10,11
7125853,-1,19,-11,-11,0,4,32,0
7125853,-1,-6,10,28,-3,-4,-4,0
7126853,16,8,-6,-18,-3,-1,-6,12
7126853,1,-5,9,-18,0,-2,-6,-5
7141852,-34,13,14,2,0,-1,-23,-14
7141852,26,-15,-20,17,1,0,-4,36
7147853,27,8,-1,-12,-1,1,7,-20
7147853,13,6,8,-10,-4,-2,3,-26
7162853,9,-31,-2,1,-2,-1,-9,39
7162853,-13,13,0,13,-2,-1,18,0
7169853,-3,0,-11,-14,-1,-2,-8,-57
7169853,25,-6,5,-4,0,1,7,23
7187854,-9,3,-10,-6,-2,-5,-10,-20
7187854,-6,3,12,7,1,0,0,22
7188856,-3,-5,-5,-9,-2,-4,-5,10
7188856,-12,-12,2,-11,-3,-1,11,2
7201855,-1,8,-8,-3,-2,0,-8,-6
7201855,-9,3,-6,7,-1,-1,-1,-6
7208240,4,4,12,1,1,2,0,12
7208240,-8,-12,-7,-4,-3,-3,14,-5
7223014,-4,2,-12,-5,-2,-2,-16,-3
7223014,-2,3,0,8,1,0,27,-6
7229798,-1,2,13,-3,-2,-3,-1,8
7229798,-8,0,8,-3,0,-1,-5,3
7245799,1,8,-26,-5,-2,-2,-17,-10
7245799,14,7,12,5,2,0,4,-12
7246969,3,-3,-10,-6,-3,-4,-15,4
7246969,-13,-7,2,-4,1,2,8,10
7261975,1,-3,10,-1,-2,-4,-4,-7
7261975,-7,3,-1,9,5,2,-9,-13
7268032,-3,-1,-15,-14,-11,-6,9,10
7268032,3,-16,8,-1,1,-1,-30,-7
7283013,-6,-2,-4,-7,-4,-4,-3,-3
7283013,1,9,11,4,3,-1,11,-4
7290014,-4,7,3,3,0,-1,-38,-2
7290014,-19,-21,-8,-3,-3,1,63,-1
7306329,-4,3,-2,-3,0,1,0,1
7306329,14,-5,-23,-4,-4,-3,-11,-5
7307095,-10,3,34,1,-2,-2,-1,7
7307095,-3,-4,-6,-4,-1,1,-23,-4
7321603,-1,-6,-25,-3,-2,0,-2,-10
7321603,12,13,-6,-3,-5,-3,-7,-3
7327970,-3,-28,-8,-3,1,1,22,3
7327970,-5,-3,-1,0,-1,-1,-8,4
7342934,10,3,3,-2,-3,-3,-2,-3
7342934,-4,2,12,0,-2,-1,-19,-4
7349611,5,5,-7,-2,-3,0,13,15
7349611,-4,-1,-3,-2,-2,-5,-21,-3
7365900,-20,-1,7,4,2,1,14,-22
7365900,0,-4,-2,-5,-5,-2,3,-1
7366606,-2,0,-3,-1,0,1,4,-4
7366606,10,-3,-8,-5,-5,-2,0,7
7381607,-17,2,8,-2,-2,-3,-8,10
7381607,-17,-7,0,2,2,0,-7,-19
7387981,-9,-9,-11,0,0,-3,-13,-2
7387981,9,3,1,2,0,1,38,2
7402981,9,-1,6,1,0,0,-10,-4
7402981,1,-1,-5,-3,-1,1,20,5
7410398,-30,11,16,0,-1,-4,-30,-6
7410398,-1,5,-12,-4,-2,-2,9,5
7426452,13,-6,5,2,0,-1,9,8
7426452,-8,-13,-19,-2,-1,-1,-16,-12
7426452,-12,7,-5,-4,-2,0,4,-5
7426452,-5,3,-1,2,2,0,-3,-1
7441490,21,8,18,-3,-3,-3,-5,-5
7441490,-12,-13,-16,-1,-1,-1,-4,6
7447460,12,-13,-8,-2,-2,-2,9,4
7447460,-5,1,4,1,1,-2,-12,-8
7463454,5,13,0,-1,-1,1,1,2
7463454,-4,0,1,0,-2,-3,-3,-3
7470454,1,-16,-4,-1,-1,0,2,-7
7470454,10,-6,-3,-3,-3,-1,0,-2
7486454,-4,4,2,-1,0,-2,-9,-10
7486454,2,5,8,-2,-4,-3,1,9
7486454,7,0,-8,-3,1,0,-4,2
7486454,-17,-6,15,1,0,-4,-26,-10
7501491,-4,-3,-12,-1,-2,-1,19,1
7501491,-4,6,2,-1,-4,-2,-3,-11
7508035,7,-11,-2,-6,-4,-2,-14,6
7508035,9,7,-1,-3,-2,-2,11,11
7522615,1,11,11,1,-1,-1,-7,-6
7522615,-21,-21,28,2,1,-3,-12,0
7529544,-8,1,-37,-2,0,0,14,1
7529544,-5,3,-9,-3,-1,-2,-11,-10
7545542,10,-6,-9,-2,-1,-1,0,7
7545542,-44,6,0,-1,-2,1,8,-16
7546544,9,-4,6,0,-3,-3,4,14
7546544,-1,-5,-7,-1,-1,-1,-5,-2
7561580,-16,-6,-5,-1,1,1,-1,-8
7561580,13,5,19,0,0,-2,-12,3
7567560,4,17,0,-1,-3,0,20,4
7567560,-15,0,-3,4,3,1,10,3
7582835,17,-4,-2,-11,-9,-6,-26,4
7582835,2,-5,-3,2,2,3,43,9
7589760,3,-2,4,1,1,1,-11,-6
7589760,5,0,-2,-4,-3,-3,-11,-3
7606066,-13,-6,-3,4,1,0,-9,0
7606066,8,0,-15,-4,-2,-1,-1,-1
7607257,2,-3,2,2,0,-1,-11,-8
7607257,4,-8,7,1,1,-1,6,-3
7621687,-8,12,10,0,-1,-1,-10,-13
7621687,16,-6,-26,-5,-2,-1,-10,9
7627693,-11,-2,5,-1,1,0,5,-5
7627693,-3,-4,-6,-1,-3,0,-14,3
7642927,4,-5,2,0,0,-2,5,-5
7642927,5,13,13,1,0,0,-3,-1
7649922,-9,-3,-23,1,1,1,8,-8
7649922,47,-1,-4,-2,0,1,-13,-2
7665907,-44,-6,-2,0,-1,0,24,8
7665907,10,-2,-1,-2,-2,0,-4,2
7666690,-7,-7,5,-4,-6,-5,-16,-7
7666690,-10,0,-5,-5,-4,-4,-10,-4
7681690,22,1,-6,3,5,5,36,7
7681690,-21,-3,-4,-2,0,-1,-3,-7
7687935,-2,-4,11,1,-3,-1,1,-6
7687935,6,10,-6,4,-1,-2,-10,0
7702927,-5,-9,-5,-1,-1,-1,-5,1
7702927,3,10,-2,-5,-6,-3,-14,8
7710168,-2,0,6,0,1,2,27,-2
7710168,-5,-2,-9,-3,0,1,4,-4
7725135,-1,-2,-5,-3,-1,-3,-8,-6
7725135,-3,-7,2,-2,-1,0,0,-6
7726129,19,7,-5,-2,-4,-4,-9,7
7726129,-13,-7,0,-3,-2,-4,-2,0
7742224,0,-11,5,1,1,2,3,6
7742224,6,2,4,-1,-2,-2,-8,-11
7748258,-10,13,8,-1,-2,-3,4,3
7748258,8,3,-3,0,-1,-1,7,-1
7763132,-5,-11,-3,-3,-3,-5,-11,-1
7763132,0,-3,1,-1,-1,-2,-17,-4
7770328,0,-13,-6,1,2,2,31,2
7770328,6,19,5,-5,-6,-4,-7,-5
7786326,-40,5,-1,3,-2,0,-23,-4
7786326,-5,-12,-2,-6,-2,-2,-4,5
7786326,9,1,-8,-2,-1,-1,20,-3
7786326,-17,-7,13,0,-1,0,0,9
7802134,11,7,-5,-2,0,-3,0,-15
7802134,1,2,-2,2,1,0,3,2
7808383,-3,0,17,-1,-2,-2,-24,-1
7808383,-10,-6,-7,-4,-1,-2,7,-12
7822673,10,1,5,-1,-3,-2,-4,3
7822673,12,-10,-3,-2,-3,-3,12,-2
7837960,7,2,-4,-2,1,-1,-7,2
7837960,-1,-1,6,2,2,2,3,2
7844962,-3,-2,-6,-3,-1,-4,-6,-3
7844962,5,3,4,-1,1,1,-17,0
7852999,-7,-1,-1,0,0,1,12,3
7852999,2,-17,-2,-2,-1,-1,-2,-2
7861669,3,2,4,-4,0,-2,-2,0
7861669,5,16,-3,4,0,-1,-1,9
7867675,-6,-19,-7,-5,-5,-3,-22,-20
7867675,-4,4,-6,0,1,1,10,6
7882676,-29,-17,-36,-9,-5,-1,-1,3
7882676,-14,2,1,3,1,-1,9,-4
7889965,2,4,-3,-2,-2,-4,-23,-2
7889965,0,-6,4,-4,-3,-2,15,-7
7904969,6,6,-2,2,0,1,-1,2
7904969,7,-22,-24,-5,-5,-2,14,-3
7912988,-4,9,5,0,0,-1,-19,-1
7912988,-5,-3,-5,-2,-4,-2,-2,2
7921790,9,5,7,-2,-3,-3,1,3
7921790,-8,-1,0,1,1,0,-4,-9
7927797,8,-2,0,0,0,-1,-8,2
7927797,-9,2,-1,-2,-2,-2,-4,-2
7943793,6,8,1,-1,-2,-1,-6,-5
7943793,15,-10,-1,-1,-1,0,30,1
7950088,-9,2,3,-1,-2,-3,-1,2
7950088,2,-2,-4,0,1,0,-9,10
7965144,9,-3,7,2,1,1,4,-11
7965144,3,5,-13,2,4,4,-9,15
7973095,8,0,-4,-3,-1,0,1,1
7973095,-5,-1,0,-6,-7,-3,-9,1
7981795,13,-8,1,1,1,-2,10,-1
7981795,-6,1,4,-1,-1,0,-10,-4
7988092,-13,1,-11,-1,-2,-4,6,-1
7988092,-14,-5,26,0,1,1,-6,10
8003795,28,3,-16,-1,-2,-2,-9,-2
8003795,-35,-1,2,-2,-3,-4,3,-5
8009968,-5,8,-4,0,1,3,13,0
8009968,9,-11,-8,-5,-1,-3,-7,-10
8025048,-14,-11,14,1,-3,-3,-1,1
8025048,3,8,6,-1,-3,-1,-6,0
8033049,0,-10,1,0,-1,-3,-10,-3
8033049,-3,7,-7,2,0,-1,-16,-5
8048050,3,-7,-1,-2,-1,1,45,3
8048050,2,1,-3,-2,-3,-4,-9,-5
8049050,4,5,7,-2,-3,-1,1,-12
8049050,1,7,-5,2,4,0,-1,16
8073050,-5,-23,-2,-6,-4,-3,-5,3
8073050,-4,2,0,-5,-4,-4,-6,-16
8074250,-2,-12,-12,-3,-3,-1,-2,0
8074250,0,10,11,-1,-1,-4,-2,-14
8085232,-10,15,6,3,1,1,-5,2
8085232,8,-3,0,3,1,0,13,7
8093225,-7,-4,-3,8,-3,-2,-16,1
8093225,20,-3,-25,-24,-3,-1,-3,-14
8108223,-3,-4,-14,-11,0,-2,9,6
8108223,1,5,21,32,1,-1,-18,-10
8109189,0,4,-23,-21,-5,-2,-3,2
8109189,-13,-11,41,8,2,1,0,-3
8123864,-4,-2,-18,-59,-7,-4,-19,-9
8123864,-4,-5,-3,-3,2,0,-4,2
8129871,10,7,8,26,1,-1,25,11
8129871,15,12,2,0,-5,-2,6,-9
8144867,-35,-9,4,17,0,1,-7,-3
8144867,-10,-28,-4,-28,-5,-5,-16,-7
8152876,3,7,12,26,2,-2,-15,-4
8152876,-1,-4,-2,29,5,4,22,5
8167877,12,17,6,7,-1,-1,7,-4
8167877,-4,-3,-47,-63,-7,-1,4,-3
8168868,-6,-6,16,-10,5,-2,-15,0
8168868,-11,-2,10,86,-6,-9,-15,-5
8183902,13,0,33,-77,6,2,9,0
8183902,-17,0,5,1,-2,2,46,-14
8190127,18,6,8,-76,-7,1,-1,7
8190127,-10,-3,-39,65,4,1,-8,2
8205128,0,-8,79,25,10,-5,-58,-12
8205128,-2,0,24,3,1,2,22,14
8212637,20,3,6,36,-6,-2,36,9
8212637,-25,6,25,-111,-5,1,2,5
8227150,-19,-10,-35,-41,0,-2,4,-9
8227150,34,12,16,21,3,0,-20,7
8228150,-19,-4,-38,-48,-4,-1,-9,-6
8228150,-3,-4,-4,47,-3,-1,4,-2
8243150,35,11,26,98,4,0,-2,-4
8243150,-8,-14,-47,-104,-9,-7,-14,-8
8249150,0,2,12,47,-1,-5,5,1
8249150,9,-11,-16,34,-3,0,4,0
8264152,0,-6,-47,-52,-2,-2,1,1
8264152,-7,2,45,57,-3,-4,-9,-7
8272152,3,8,-6,-15,0,-1,-28,-15
8272152,-1,-11,-10,-26,3,2,36,15
8295154,-5,12,13,44,-5,2,6,1
8295154,0,8,10,3,0,-2,-7,0
8296154,-19,-11,-4,-6,4,-2,-12,-1
8296154,16,5,-6,-20,-2,-5,-30,-25
8303154,2,28,-10,14,-9,1,25,20
8303154,8,-45,-29,-35,-5,-2,17,-6
8309660,-4,-12,-2,12,1,0,18,-13
8309660,-9,1,-1,-16,0,-1,-12,10
8325219,1,-1,-17,-2,-1,-1,-2,-1
8325219,4,18,9,58,0,-3,-19,-2
8333226,-2,-2,-17,-31,-2,0,2,1
8333226,-2,-7,5,-24,-2,-2,0,-3
8348217,3,-5,-13,-4,-4,-4,-5,0
8348217,-11,4,1,23,1,2,1,11
8349216,-2,-6,25,9,-3,-2,-6,-15
8349216,-9,2,-21,-25,-2,-1,-7,-3
8364171,2,-7,-19,11,-1,-1,-3,5
8364171,19,3,-6,11,1,2,-2,33
8370214,-33,2,3,-2,-2,-1,2,1
8370214,-5,-10,6,-14,-1,-3,-8,-27
8384458,3,-15,3,12,0,0,-4,-24
8384458,-17,13,6,0,3,0,-4,24
8393306,19,-13,-34,-4,-2,-2,-6,-22
8393306,-4,4,8,1,-1,0,5,-9
8408292,23,-4,-3,-1,-3,-4,-7,-4
8408292,-7,9,-1,-1,1,-1,-9,-13
8408968,9,4,7,5,0,0,0,31
8408968,5,-5,-12,-9,-5,-1,-5,-10
8423282,-3,0,-1,-4,-4,-1,15,-4
8423282,1,-2,-6,0,0,3,1,0
8430282,3,-3,3,10,4,-2,-2,4
8430282,4,-6,-5,-13,-5,-1,-3,-4
8445305,-15,1,0,-2,-2,-3,-7,13
8445305,-10,-9,0,1,-5,-4,-11,-8
8452289,-6,1,-10,3,2,2,19,-3
8452289,-1,3,2,1,3,2,1,5
8468304,-8,-1,-2,-1,-2,-1,-5,6
8468304,4,-4,-7,-2,-2,-2,-1,-10
8468304,-5,-2,5,1,-3,0,-10,-15
8468304,-6,-3,-3,-7,-1,-4,6,13
8483284,-3,-2,-15,0,-1,0,-4,-7
8483284,13,4,13,-2,-2,-1,4,-18
8490306,-16,4,11,1,-2,-2,-5,19
8490306,7,-12,-11,-2,0,2,5,-2
8505303,11,7,1,-1,-4,-4,-6,-2
8505303,-26,-33,-17,-4,-1,-1,-11,-11
8512810,27,17,11,2,-2,-1,-8,-2
8512810,2,-2,1,0,-1,-1,1,2
8527614,-1,5,10,2,-1,3,45,29
8527614,4,9,-9,2,-1,-1,-5,-18
8528608,7,-9,-2,2,-2,-2,-4,0
8528608,-10,-7,-1,-5,-2,-2,-22,2
8552611,-7,2,9,0,0,-3,-16,-1
8552611,3,10,0,-1,-4,-3,13,-8
8553611,-14,-13,-9,-3,-2,0,-19,-4
8553611,17,19,0,-7,-3,0,35,2
8564610,-40,-3,-8,-1,-3,-4,-14,-1
8564610,-22,-11,-3,-2,0,-1,5,8
8572972,7,-2,-1,0,-1,-2,-13,-5
8572972,-13,-2,-3,-3,-4,-4,-4,22
8587904,10,-4,-2,-1,1,1,-8,-8
8587904,-3,-1,-19,-4,1,-1,25,-5
8588612,2,-10,0,-1,-2,-1,11,1
8588612,-6,3,4,0,0,-3,-19,0
8603612,-4,-4,2,-1,-2,-2,10,-11
8603612,4,5,-1,-1,1,-2,-24,3
8610201,12,-10,1,0,-1,1,11,3
8610201,-10,-5,-6,1,0,0,0,-1
8624408,-4,7,-4,-2,-1,-1,-19,-22
8624408,15,-11,-9,-2,-4,-3,-11,-3
8633407,-12,-2,-25,-8,-4,-3,5,-2
8633407,26,6,5,0,-2,-1,1,-15
8648409,-9,-14,-2,-2,-1,-2,1,1
8648409,6,14,7,6,4,1,-11,6
8648409,-25,-1,8,-5,-8,-4,11,-2
8648409,7,-10,-2,-1,-1,-4,-11,-6
8663410,9,3,-2,-1,0,-1,0,-1
8663410,-9,-5,2,3,-1,-2,-3,-1
8677417,7,-3,4,1,1,-2,-6,-1
8677417,-17,5,-24,-1,-1,-2,-9,-2
8684410,0,-19,5,-2,-2,1,24,1
8684410,5,5,11,-1,-1,2,28,7
8692417,-22,-4,3,4,3,1,-16,-9
8692417,71,13,3,2,-1,1,20,-1
8707989,-35,6,-12,-7,-3,-1,-17,4
8707989,-17,-21,-2,-2,0,0,-18,-6
8715263,-6,-3,-4,-2,-2,-1,9,-1
8715263,-3,-15,1,0,0,1,-6,-1
8723494,29,17,-2,-2,0,-1,-16,-2
8723494,-5,11,3,0,0,-1,1,1
8730495,0,3,4,0,3,0,3,0
8730495,-16,0,4,-5,-6,-2,4,-3
8745495,-24,-5,-11,2,-1,-2,-6,0
8745495,-9,4,1,-7,-3,-3,1,-4
8752532,16,4,8,-4,-1,-3,1,-1
8752532,-17,-10,-4,-4,-1,-3,-5,1
8767539,9,2,26,22,4,3,-2,10
8767539,-10,-5,-36,-42,-4,-1,4,-14
8774498,-2,2,-2,2,-3,-4,-22,1
8774498,15,-4,6,-6,3,2,20,10
8783499,14,1,11,14,-1,0,18,-11
8783499,-4,-3,9,12,1,0,-9,-2
8789785,-2,-4,-3,-12,-2,-2,-10,-5
8789785,-16,2,-8,3,-2,-3,2,-2
8804786,6,3,-3,-3,1,2,-14,5
8804786,3,-11,13,22,-2,-1,9,1
8813008,-4,3,-20,-27,-4,0,6,-6
8813008,-12,-7,15,10,2,-1,-11,-1
8827840,-2,2,-7,-16,-2,0,-3,0
8827840,5,10,2,5,-2,-2,-10,4
8834874,6,1,-3,13,-1,0,-3,9
8834874,-7,0,-2,-8,-1,-3,-5,-7
8843838,1,0,-7,-2,-1,-1,10,-2
8843838,-1,-2,0,7,-3,0,0,0
8850173,7,-1,10,-17,-1,-2,-2,10
8850173,-8,15,-19,-7,-1,1,-14,-6
8864840,14,-12,-19,-1,-3,-1,22,0
8864840,6,-16,7,0,-1,-3,10,-3
8872841,-9,-8,-8,5,-2,-3,6,-5
8872841,-1,18,16,5,1,-2,-11,-3
8887882,14,-2,14,-3,-3,-2,-7,2
8887882,-35,15,-22,1,1,1,24,0
8895102,3,-11,-10,5,0,2,3,-8
8895102,-6,-3,1,-6,-7,-4,-8,8
8904104,7,-2,-8,-3,-1,-2,15,-8
8904104,12,1,7,-3,-1,-2,-11,4
8910183,-4,5,0,3,1,-1,1,-1
8910183,-26,-4,-3,0,-1,-1,1,-10
8925026,-2,-5,-3,-4,-1,-2,-12,7
8925026,11,-3,4,-5,-4,-1,-17,-19
8932801,5,9,11,4,-1,0,17,13
8932801,2,-6,11,3,1,1,-5,-5
8947797,-1,-9,-5,-6,-4,-5,1,1
8947797,3,1,0,-2,-2,-2,-4,-5
8955028,8,-3,3,4,1,-1,-20,1
8955028,-10,1,-2,-5,-3,0,13,6
8971029,-8,8,0,-4,0,-1,-14,1
8971029,-5,-19,1,-2,-1,-3,14,4
8972026,-6,-8,3,1,-1,0,-4,-5
8972026,20,-8,-8,-2,-2,-3,-13,-3
8985028,-4,9,-12,-3,-3,-2,-15,-5
8985028,22,11,3,-1,-1,-4,-18,1
8993031,-1,6,-4,2,-1,0,2,-5
8993031,-3,-4,-5,-1,3,2,31,-2
9008213,-2,2,11,-2,-1,-2,-15,-2
9008213,3,-7,2,-1,-2,0,-11,-10
9015026,-12,-3,16,-1,0,1,30,-2
9015026,3,-9,-25,-1,-2,-1,-8,3
9030826,-11,-8,-14,-2,-1,0,6,-15
9030826,-2,5,6,-3,-2,-4,0,4
9031826,-1,4,-20,-3,-4,-2,-16,-4
9031826,-4,1,8,3,2,2,5,5
9044862,7,-14,7,-1,-3,-1,6,-4
9044862,-26,-3,-12,-4,-3,-3,-23,7
9053158,-8,4,-5,1,0,0,-4,0
9053158,4,6,8,3,1,-2,-3,-11
9068130,-25,-8,-2,-1,-5,-4,-8,-2
9068130,7,-3,4,0,-1,0,9,1
9075162,2,1,-3,-4,-4,-2,15,1
9075162,-8,1,2,1,-1,0,-1,3
9090866,2,2,3,-4,-4,-5,-8,-4
9090866,2,3,8,0,-1,1,-2,-2
9091829,-6,-6,-7,1,1,-2,-11,-6
9091829,-5,-10,-6,-3,0,1,24,3
9105163,3,3,4,-1,-1,0,5,2
9105163,3,6,-9,-3,-1,0,-3,1
9112842,1,-10,-4,5,-2,-3,-9,-4
9112842,2,-1,5,-3,-2,-1,-18,5
9127896,9,-8,1,2,1,1,-5,0
9127896,-32,-9,-25,-2,-1,-1,9,4
9135195,25,18,21,4,2,0,-15,-19
9135195,0,1,-4,-2,-1,1,20,7
9150902,-6,-11,-9,-1,-2,-3,-2,-6
9150902,12,7,2,1,0,0,12,-5
9151860,-5,-14,-4,-3,-3,-5,-12,3
9151860,-2,-3,-8,-4,-3,-3,-13,-14
9165199,1,11,7,4,1,2,-2,3
9165199,1,-13,11,-4,-5,-1,-5,-3
9173190,-3,3,-18,0,0,-1,8,0
9173190,-13,-5,-3,-3,-1,-2,-1,-1
9188196,20,-5,-5,1,0,-2,-12,-2
9188196,-4,-1,-10,3,1,0,13,1
9195198,-7,-8,5,-1,0,-1,5,4
9195198,5,8,-7,-3,-4,-2,-2,5
9210890,-2,1,-9,-2,-1,-2,0,-3
9210890,6,8,1,-3,-3,1,-7,1
9211888,1,-5,-1,13,-2,-1,1,-3
9211888,-15,-3,-1,-22,1,2,5,4
9226186,-3,-1,-6,21,-2,-1,-11,2
9226186,12,3,-5,-37,-2,-3,-7,-1
9232186,-3,0,5,3,-2,-3,0,4
9232186,6,-8,2,6,-2,-6,-29,-3
9247188,-27,-1,20,15,2,7,38,1
9247188,9,2,-37,-40,-5,-4,-28,-10
9255205,12,3,9,25,-4,0,11,19
9255205,-6,6,-5,-30,-1,-1,-9,-2
9271202,18,-8,25,46,2,-2,-6,-3
9271202,-6,0,4,-17,2,-1,-1,0
9272206,-13,-1,-2,-3,-1,0,-4,-6
9272206,17,-3,-12,-5,-4,-2,-2,-9
9287189,-9,9,-4,-4,-2,-1,-3,9
9287189,-7,-4,5,-40,1,1,0,-5
9293203,-9,-8,-4,10,-4,-6,-10,-6
9293203,-4,5,26,85,1,-3,-10,-5
9308173,-5,7,-4,-111,2,5,53,9
9308173,10,-28,32,127,0,-2,2,6
9315406,-5,1,-31,-113,2,2,-9,-6
9315406,-2,13,-32,6,-13,-5,2,-17
9330214,-13,-15,6,35,2,1,-35,-2
9330214,10,1,7,109,-1,1,5,14
9331214,-15,-2,-24,-77,-1,-2,5,-11
9331214,7,-3,8,16,0,-1,-13,-1
9347216,9,12,17,37,1,0,56,28
9347216,2,3,-73,-118,-5,-1,-30,4
9352221,-17,-12,22,51,-2,-6,-43,-33
9352221,-1,2,11,2,6,5,37,3
9368236,23,5,-13,-14,-6,-6,-46,0
9368236,-15,7,-20,10,-9,-2,32,2
9375278,1,-21,13,77,4,-2,-4,10
9375278,-7,-15,6,-101,-7,-4,-17,-18
9391276,-3,-4,0,25,5,1,3,-14
9391276,-7,19,5,-4,-5,-8,-10,3
9391276,19,8,-11,10,-3,1,10,11
9391276,-12,-2,-12,-53,-5,-2,5,5
9406856,-14,-12,-7,30,1,-1,-8,-10
9406856,-1,9,45,-18,2,-1,-3,-13
9412822,5,14,-36,-48,-8,0,8,-2
9412822,-4,-19,13,41,5,2,8,20
9436160,-7,12,2,-38,-6,-3,-11,-16
9436160,0,-10,-15,56,-2,1,1,-5
9436160,-1,-6,-7,-34,8,1,12,6
9436160,-13,7,8,13,-2,-1,-10,-4
9450161,17,5,-6,-17,-3,-4,-23,0
9450161,-29,-3,11,24,1,2,39,20
9451161,11,-7,-2,-36,-5,0,-10,-6
9451161,-3,-3,12,3,1,-1,2,-4
9466196,-18,-12,-11,-9,-3,-4,-9,-16
9466196,11,2,11,-13,4,1,-13,-1
9473197,-1,5,6,10,-3,-1,-10,3
9473197,22,3,-10,13,-3,-4,-3,-2
9488194,-31,-21,-7,-12,-8,-4,-1,-6
9488194,24,18,-6,-7,4,1,-8,-12
9495195,-10,-2,25,28,-3,-1,15,7
9495195,-17,11,-12,7,-1,-1,-6,3
9511142,2,-19,-13,-5,-2,-1,5,-1
9511142,-1,-9,-7,-25,-3,-4,-9,-2
9511971,3,16,-1,25,1,1,9,10
9511971,22,2,-1,7,0,1,-2,18
9526922,-4,6,-12,-17,-5,0,4,50
9526922,-6,-13,16,-9,3,1,-3,-31
9533147,-45,3,-8,10,-2,-2,-4,-83
9533147,2,-33,3,-4,-2,-4,-17,-25
9548150,0,9,-5,-1,2,0,26,-6
9548150,15,-11,8,2,-3,0,-10,19
9555153,12,8,10,2,-2,-3,0,21
9555153,-8,4,-4,-4,3,2,24,-10
9571160,23,9,-2,1,-2,-2,-16,-32
9571160,-1,-6,2,-8,-4,-2,5,11
9572155,6,1,8,0,2,0,5,13
9572155,-13,-3,-8,-2,-2,0,4,3
9586925,15,-6,2,3,1,-1,-4,2
9586925,-10,8,4,-7,-4,-2,1,-1
9593156,1,-11,4,6,1,1,-1,6
9593156,13,-2,-6,-2,-3,-4,-5,7
9608169,-9,-2,-3,-1,1,-1,-3,-1
9608169,0,-7,-1,-8,-3,-3,-3,-5
9614624,-5,5,-2,-1,-5,-2,1,4
9614624,-9,-1,0,7,4,1,-3,1
9630487,6,6,4,-10,-6,-4,-6,-4
9630487,-14,-1,-3,-4,0,-2,-4,-5
9631486,13,-7,-9,-9,-4,-1,-5,2
9631486,-9,3,11,-2,-1,-1,9,-3
9646496,2,10,-10,4,2,2,-3,3
9646496,-11,-11,-5,2,1,-2,-16,-2
9652488,13,5,7,4,-1,-2,-10,7
9652488,32,10,8,-1,-1,1,-2,0
9667787,-47,-12,-7,-1,-1,-2,-4,-3
9667787,4,-7,18,1,1,1,-8,4
9674775,15,-6,-28,-5,-2,-2,0,7
9674775,-11,6,4,-2,-4,-5,-17,-2
9689775,17,-9,5,-2,-2,-4,1,-2
9689775,6,-2,-8,-5,2,-1,-8,-15
9698490,-24,-8,3,1,-1,0,-5,5
9698490,-22,-13,-8,1,-1,0,13,-6
9706997,23,3,-4,-1,-1,0,-7,-7
9706997,-7,7,2,-5,-3,-2,-24,1
9713499,2,-5,3,1,-1,2,58,3
9713499,7,4,3,5,0,-1,8,0
9727509,-22,-3,-13,-6,-1,-1,-9,9
9727509,9,-2,-1,-3,-1,-2,-12,-12
9734510,-1,4,3,4,-2,-3,-13,-1
9734510,-4,-6,-3,-2,-4,-2,-8,0
9749516,1,4,-2,-1,0,2,0,4
9749516,-3,2,-3,0,-1,-2,12,1
9757807,-47,-18,-3,-1,-1,-3,-9,1
9757807,-6,-9,-8,-4,-1,-3,-1,20
9766510,6,-10,2,-2,-1,0,-14,-22
9766510,-11,16,-2,-1,1,1,28,6
9772737,15,16,0,0,0,-1,0,8
9772737,-4,-4,-3,-4,-2,-4,-21,-19
9787738,-6,-11,4,-3,-2,-2,11,5
9787738,4,0,-3,1,1,1,7,-4
9794927,2,-6,-1,-2,-3,0,-10,-3
9794927,-10,9,6,0,-1,-1,-9,6
9809810,5,4,5,6,2,2,7,-1
9809810,-1,-14,-2,-6,-3,-3,33,4
9818114,-3,18,9,1,-2,-1,-7,-5
9818114,-5,0,-12,-3,-2,-3,-30,-9
9826827,-7,-19,6,-1,0,-2,5,2
9826827,-3,0,-7,-2,-3,-2,-4,-1
9832829,10,3,5,1,0,-1,-2,-1
9832829,7,2,8,0,0,1,7,1
9847830,-12,-2,-6,-6,-5,-4,-7,-14
9847830,5,3,10,4,1,2,1,0
9854869,17,-3,-9,-1,-1,-1,6,-6
9854869,-15,-3,-6,-1,-1,1,12,-7
9870079,41,10,-4,-1,-2,-2,-4,11
9870079,-44,-8,4,-2,-2,-3,-11,-5
9878048,-4,-6,12,0,-2,-2,-7,8
9878048,26,2,-2,-1,-2,-1,22,-4
9893036,-8,-12,-4,-2,-1,-4,-14,-4
9893036,7,1,-3,1,1,1,0,-8
9894081,2,1,0,-3,-3,-1,-25,0
9894081,1,-11,-8,-6,-3,-2,10,-2
9916126,-11,7,9,2,-2,-1,-18,2
9916126,5,-9,7,-1,-2,-2,7,2
9917138,-5,-3,-9,0,-1,-2,-16,-18
9917138,9,4,-5,0,-1,1,1,15
9929049,-10,11,4,-2,0,-1,11,-2
9929049,1,-12,12,3,1,-1,-8,10
9938178,2,1,-3,1,0,0,2,-14
9938178,-5,2,-3,-1,-2,-1,-5,-2
9953142,2,-13,3,2,1,-2,6,0
9953142,1,15,-19,-6,-3,-1,2,12
9954169,3,-15,6,-2,-3,-4,-9,-11
9954169,2,-3,-5,-2,0,-3,9,6
9968169,-22,6,-1,-1,0,0,-6,-8
9968169,13,-3,-8,-2,1,2,21,8
9975182,27,0,-1,0,2,0,2,12
9975182,-46,-9,-2,0,-2,-2,-2,-14
9990181,4,3,-2,-3,-1,0,2,8
9990181,0,1,-1,-3,-4,-3,-6,-9
9998179,-5,-1,-2,2,1,0,-12,3
9998179,9,-5,-11,-1,-3,-3,3,2
10012777,-2,-7,-5,-1,-3,-2,-3,-4
10012777,1,16,-3,-2,-4,-2,-8,-14
10014005,-7,-19,-7,1,1,-1,25,12
10014005,2,-2,6,0,0,1,-11,-4
10027787,-7,2,1,-2,-1,0,4,-3
10027787,-7,-15,-14,-4,-4,-6,-29,-9
10034783,4,18,9,3,2,2,26,7
10034783,3,-10,5,-3,-4,0,-4,8
10049784,-8,7,9,-1,-2,-2,5,-3
10049784,-3,0,2,-1,-3,-3,-7,-8
10057818,-22,0,-7,-4,-3,-2,-4,-1
10057818,3,8,-3,-1,0,0,-5,-4
10074015,8,1,-8,-1,-1,-2,0,-1
10074015,-1,-6,0,1,-2,-2,-28,1
10075017,-14,1,7,-2,0,3,44,2
10075017,32,-7,-1,0,1,1,-24,-6
10088018,-64,2,-21,0,1,2,22,-3
10088018,10,10,-1,-3,-3,-2,4,0
10094786,-3,-12,-12,-4,-5,-7,-15,-6
10094786,3,-24,-5,-4,-3,-3,-10,0
10110177,17,-3,-3,0,-1,-2,-10,-5
10110177,-2,-3,-1,3,2,3,12,1
10117769,-12,5,-6,-1,-1,1,-11,3
10117769,-2,2,-9,-5,-1,-3,2,-10
10133233,19,9,4,1,0,1,-2,4
10133233,9,2,0,-3,-1,-1,9,-1
10134232,1,-6,-5,-2,-3,-2,-7,-7
10134232,-14,4,3,-1,-2,-1,-1,-7
10148234,20,-12,0,-4,-3,-3,5,4
10148234,-9,1,-8,-2,-3,-2,-20,0
10155234,0,-1,7,1,-1,0,15,-3
10155234,-7,-2,-6,1,2,0,-15,2
10170235,-8,6,-4,-1,-2,-2,-3,-4
10170235,9,-9,1,0,0,1,6,1
10178235,1,3,4,-2,-1,-5,-15,-14
10178235,-6,3,-2,0,-3,-1,2,7
10194236,5,-1,6,-1,-3,-1,-2,2
10194236,-3,-7,1,-2,0,-2,0,3
10195237,0,0,-5,-4,-1,-2,-9,-5
10195237,1,-1,1,-3,-2,-3,1,-4
10208174,5,-8,-3,-4,-2,-3,-14,-4
10208174,-4,6,0,0,1,1,34,-2
10215147,18,-2,-1,1,0,-2,-7,5
10215147,-54,2,6,0,1,0,2,3
10230147,23,-3,6,-5,-3,-1,3,10
10230147,-10,0,-11,4,4,2,-3,-9
10238171,-3,12,-8,-9,-8,-2,-11,-12
10238171,16,-12,-4,1,1,0,28,0
10252151,-5,-17,-7,-4,-2,-2,-16,-7
10252151,-8,-1,16,1,1,1,11,7
10253150,10,-4,-26,2,1,2,12,-2
10253150,0,12,-8,-1,0,-2,-13,-6
10267151,-8,-6,6,1,-1,1,2,12
10267151,5,-11,-12,-5,-4,-1,-17,-6
10275169,-6,15,10,3,0,2,24,-3
10275169,8,1,-1,-2,-3,0,27,-11
10290170,3,-1,3,-1,1,-3,1,1
10290170,0,-1,0,-4,-5,-6,-17,-2
10298172,-6,-9,-1,-2,-2,-1,-14,-1
10298172,0,1,2,-1,-2,-1,-3,1
10312875,5,0,-6,2,1,1,2,-10
10312875,-11,3,1,2,0,-3,5,-5
10313884,-3,0,12,-1,-3,-3,-11,6
10313884,-12,-1,8,0,-1,-2,-2,10
10327115,6,7,0,0,-1,-1,-2,-18
10327115,1,-6,-3,-1,-2,-4,-11,-1
10334328,28,4,-3,-2,1,-2,-1,8
10334328,6,-19,-5,-6,-6,-5,-12,-5
10349116,-12,6,6,0,0,0,-2,6
10349116,-8,-6,-9,-1,0,0,-6,3
10358169,-11,1,24,3,1,1,4,3
10358169,13,-6,-19,-1,1,-2,-14,-6
10374164,-9,12,12,2,0,-3,-11,-9
10374164,12,-5,-12,-6,-6,0,20,-8
10375170,-9,-11,5,-1,1,-1,-19,4
10375170,-5,6,0,1,-2,0,15,-2
10390133,-11,-5,-18,-3,-3,-3,-9,-5
10390133,10,-5,10,1,1,1,4,12
10395166,-7,-8,-6,-4,-2,0,3,-6
10395166,7,4,-6,1,-1,-3,-5,-6
10410110,-15,6,3,-1,-2,-2,-1,-2
10410110,9,6,-2,0,0,-1,2,1
10418093,-4,-7,-12,-3,-3,-1,-8,0
10418093,7,-1,9,-1,0,0,-15,5
10434166,-1,5,1,3,2,1,0,0
10434166,1,-5,-4,-6,-4,-2,8,0
10434166,-9,-6,-9,-3,-4,-2,0,-4
10434166,-5,-2,-2,-3,0,1,0,0
10449171,2,10,19,0,-4,-1,-8,10
10449171,0,1,-7,1,-2,-1,-2,-10
10455166,-4,-1,-3,1,1,-5,2,-2
10455166,3,7,8,-5,-5,-2,-17,-2
10470166,-1,-26,-25,-1,1,1,0,1
10470166,-9,-1,8,-2,-1,-2,-18,-1
10478170,6,-1,-8,-1,0,2,9,-4
10478170,2,11,1,-1,-4,-3,-10,3
10494167,0,3,-1,-3,-2,-2,13,3
10494167,24,-12,6,4,2,0,-11,1
10495165,-17,1,-15,-5,-6,-4,-9,-7
10495165,-8,-4,2,3,1,-1,-15,-1
10510129,11,-4,-4,-6,-2,-1,23,5
10510129,-4,4,1,0,1,0,7,-2
10515361,-2,-3,5,3,3,-1,-11,-3
10515361,11,-3,1,-5,-5,-2,3,-4
10530369,-13,-3,-4,-2,-3,-1,19,3
10530369,-15,-2,-2,-1,-1,0,1,1
10538369,9,1,-3,1,0,0,0,-2
10538369,-30,7,2,7,1,1,1,-8
10553369,14,2,0,-7,-3,-5,-32,6
10553369,-9,-7,-9,1,-4,3,49,5
10553369,1,-10,-14,-1,1,0,-4,-4
10553369,5,11,-3,6,-1,1,9,16
10569370,-6,-16,10,-20,1,-2,-18,-12
10569370,-7,8,9,-4,-1,-5,-23,-8
10574656,-1,-2,1,8,-6,-3,4,-2
10574656,-3,-8,12,7,-4,0,13,0
10589378,20,3,-21,-41,-2,1,3,-2
10589378,-41,-7,23,32,5,-6,-21,-3
10598372,-15,18,8,-13,1,2,-6,-4
10598372,29,-8,29,32,4,-1,-5,3
10613664,-42,2,-8,90,-9,2,24,-8
10613664,-1,-3,-2,-37,-3,-4,-18,-4
10614664,8,-8,-41,-100,-4,-3,-5,8
10614664,1,5,1,27,6,1,13,2
10629571,7,8,4,36,-5,-6,-8,4
10629571,7,6,-1,-52,-3,6,3,-8
10634577,-7,-14,-33,13,-6,-3,1,-13
10634577,-7,-8,12,8,-1,-6,0,-1
10657866,10,-9,-1,53,-4,-6,-48,-9
10657866,-1,13,28,11,7,0,35,1
10658571,10,5,-1,-16,-8,0,15,0
10658571,-11,-13,-49,-99,-2,-4,-14,15
10672877,22,5,-17,-23,1,1,19,-2
10672877,18,6,3,115,-1,-2,-23,-3
10679573,-10,4,29,-47,6,-3,-25,-12
10679573,1,-11,-30,-17,-9,-2,36,1
10689573,16,8,20,-1,-1,-2,4,15
10689573,-41,-5,-38,-44,-1,3,11,2
10694854,7,3,14,61,-3,-2,3,7
10694854,-6,-16,-8,-20,-1,-2,-21,-20
10710162,-9,-5,3,-15,1,-1,5,-6
10710162,9,12,-18,10,-5,-3,-1,-3
10717866,-8,-6,43,52,6,2,1,2
10717866,-9,-3,-10,62,-2,-2,-2,-4
10732683,-7,-6,13,-64,0,2,6,1
10732683,10,5,-47,-5,-7,-3,-13,-6
10739668,4,18,67,-21,2,0,5,6
10739668,3,-29,19,103,0,-1,-5,1
10749383,-20,-20,-11,-87,0,-4,-6,-15
10749383,14,5,4,1,-3,-2,-15,12
10754383,-2,-6,-3,8,3,3,4,19
10754383,11,29,-7,-7,-7,2,38,-17
10769384,0,5,-4,54,0,-1,2,-2
10769384,-37,-15,2,-82,-1,-3,-6,-6
10777390,-5,26,-14,41,-4,-5,-8,0
10777390,-17,-33,-4,-60,1,-1,-8,0
10793384,-6,-14,-11,2,-7,-1,15,-3
10793384,41,14,0,9,-1,-1,-11,2
10800384,-12,-20,-11,-5,0,-2,0,-1
10800384,-7,23,3,-10,-2,0,-9,4
10809679,5,4,14,6,4,-1,-2,2
10809679,13,-16,7,-2,-2,0,6,1
10815179,7,12,-18,5,-3,-2,0,-7
10815179,13,27,15,-6,1,-2,-4,-2
10829189,-18,-37,-45,7,-4,-2,1,6
10829189,-4,-15,16,3,-4,-1,5,-3
10837194,-9,0,-4,6,-2,-2,-3,-3
10837194,-3,-15,-13,-17,-2,-1,-12,1
10853187,-3,5,1,-8,-2,-1,-1,1
10853187,4,-1,22,11,2,0,-3,-5
10859188,18,-13,-11,-9,-2,-3,-1,-21
10859188,-46,10,10,-3,-1,0,0,-10
10875195,-5,15,7,-3,0,-3,-14,2
10875195,-6,-4,4,9,1,-1,20,24
10876189,-5,-11,-28,-1,-2,-3,-7,-4
10876189,13,9,3,-6,-1,-3,-13,-29
10889195,3,1,-6,2,-2,-2,5,-4
10889195,-11,-12,-10,-4,-5,-6,-31,-15
10897190,-10,-3,-4,0,0,-1,-1,6
10897190,-9,0,8,-6,-2,-3,-22,4
10912710,32,3,3,-4,3,2,27,5
10912710,-43,0,-26,4,0,0,1,-4
10919925,-1,-8,-4,-4,-4,0,-5,3
10919925,13,0,4,-5,-4,-2,-11,7
10935616,-3,7,16,6,4,0,-8,-1
10935616,1,-5,-12,-1,-2,-3,0,-5
10936414,7,-3,-3,3,-1,-3,-13,-1
10936414,1,-1,-11,-4,0,-1,13,11
10949616,-1,4,7,-2,1,0,7,-3
10949616,2,-3,-6,-4,-4,-1,1,-5
10957663,-11,-2,2,-3,-2,-1,-3,3
10957663,22,1,-7,0,0,1,-6,9
10972662,-8,-5,-12,-6,-5,-2,-14,-6
10972662,4,15,14,6,2,1,8,0
10979416,4,5,4,0,-2,-1,0,-5
10979416,7,-10,-31,-8,-2,3,35,17
10995419,-17,-23,-6,-1,-3,-3,-22,-12
10995419,0,9,7,1,1,-1,-9,-10
10996418,12,1,-1,-4,-2,0,-3,14
10996418,-14,5,1,0,2,-1,6,-17
11010123,0,-5,0,-3,-3,0,-6,15
11010123,8,-7,-3,2,-1,-2,-3,-16
11017863,4,2,4,-2,-2,-1,5,1
11017863,-6,-2,5,-1,-2,-2,-11,-4
11032135,32,5,-2,-3,-2,-3,-16,-16
11032135,-13,-7,3,0,-1,0,5,2
11040148,-10,14,5,4,2,1,4,10
11040148,5,-20,-13,-1,0,-2,-2,-4
11056145,6,10,-1,-1,-1,0,-7,14
11056145,-4,-7,-1,-6,-4,-3,-11,-13
11057146,1,-12,-26,-6,-3,-5,-10,6
11057146,5,9,16,0,0,0,4,1
11072132,-16,-10,-4,1,0,-1,9,23
11072132,12,-7,-3,-4,-4,1,1,-20
11078145,-19,9,7,2,0,0,7,-11
11078145,-5,2,3,-1,-3,-4,-12,-8
11093148,-2,-3,4,-1,3,2,-11,-3
11093148,13,3,2,0,0,-2,16,17
11100142,2,-10,-5,-3,1,-3,1,-8
11100142,4,5,3,1,0,0,0,-1
11116358,-15,6,6,-4,-3,-2,-19,-10
11116358,0,-13,-9,-4,-5,-2,-6,11
11116858,7,0,1,2,1,3,65,2
11116858,-16,2,6,-4,-2,-2,-8,-2
11130367,3,-9,-5,1,0,-1,16,-3
11130367,-2,4,-1,-1,-1,-4,-20,4
11137402,4,-6,0,1,-1,-2,-12,-1
11137402,-18,4,15,0,-4,-3,-13,-6
11153367,16,7,0,1,1,3,15,5
11153367,4,14,-15,3,2,1,1,-3
11159369,-14,-16,25,-4,-5,-3,-3,0
11159369,27,6,-17,-4,-1,-2,-9,4
11175670,-27,-11,5,-2,-4,-5,-21,-13
11175670,39,2,1,-2,1,1,14,10
11176369,-71,15,20,3,0,-2,-12,-12
11176369,6,-15,-2,-2,-1,1,6,6
11189658,-4,4,1,-2,-1,-2,10,-1
11189658,3,6,1,2,-2,-2,-14,-14
11197371,25,-2,-2,0,-1,0,-3,-5
11197371,-4,5,3,0,-1,-1,-1,-11
11212665,-18,4,-7,-5,-8,-4,13,4
11212665,-7,-8,1,0,-1,-2,-1,-3
11220207,22,2,-14,-2,-1,0,-18,-1
11220207,-9,-8,-6,-1,-2,-2,-10,-1
11235463,7,-1,-1,0,1,0,2,-1
11235463,-12,-4,-7,-4,-2,0,16,11
11236456,1,-14,-1,-1,-2,-3,-11,-17
11236456,14,5,0,0,3,3,12,7
11249644,-8,-4,-27,-11,-7,-3,-6,-16
11249644,-9,4,19,4,0,-1,0,6
11257792,-3,-8,0,-1,-2,-1,0,11
11257792,-3,3,-11,1,-1,-2,-3,-2
11272794,8,19,-3,1,2,1,26,1
11272794,-27,-26,-5,-2,-3,-2,-22,0
11279459,12,-6,-16,-3,-3,-2,3,-2
11279459,1,-3,12,0,0,2,-10,-6
11296461,-1,8,4,1,-2,-3,-19,-4
11296461,3,11,0,0,1,0,39,-3
11296461,12,1,5,1,-1,1,-2,6
11296461,0,-18,-6,-6,-4,-3,-5,0
11309984,11,-7,3,2,2,0,-4,3
11309984,-22,-1,-3,-2,-1,-2,-9,3
11318270,-9,-3,-10,-3,-3,-2,-1,-8
11318270,17,15,6,0,0,1,1,0
11332837,2,-12,-1,0,-2,-2,5,-5
11332837,-1,-2,-3,0,-1,-2,-21,-5
11339780,-1,-2,-12,-3,-2,0,23,9
11339780,0,-4,2,-3,-5,-5,-12,-6
11355799,-12,11,13,0,0,-2,-2,-3
11355799,6,-3,-7,-1,-4,-3,-15,-2
11356497,6,-5,-9,-1,0,-1,0,-6
11356497,-6,-7,0,-1,-1,-1,11,2
11369783,-11,-2,-22,-2,-3,-1,-19,-1
11369783,15,-2,-9,-2,0,2,37,2
11377834,6,17,5,-2,-3,-4,-22,-2
11377834,-16,-1,-6,1,0,-1,50,5
11392800,-5,-7,13,0,0,-3,-17,-7
11392800,-2,2,-1,-2,-1,-1,13,1
11399786,0,-14,-2,1,1,2,-2,0
11399786,0,10,-2,-2,-1,-3,-12,-3
11416349,2,3,8,1,1,0,1,-8
11416349,-4,-9,-3,-1,-3,-4,-10,3
11416849,-5,-3,4,4,4,-1,1,-11
11416849,17,-2,-7,-9,-8,0,-17,-1
11429360,4,-2,-6,-1,3,3,35,23
11429360,-6,6,25,2,0,0,-15,0
11438360,-11,5,-11,-3,-5,-5,-16,-13
11438360,-2,-24,-1,2,3,1,1,-5
11452664,-3,1,-6,-1,-3,-1,-8,-5
11452664,7,-2,2,-4,-2,0,28,-3
11459645,22,2,-3,1,0,1,0,-7
11459645,-3,18,4,0,-2,-4,-4,6
11475660,-9,-28,4,-3,-4,-2,-14,-17
11475660,-7,-1,-7,-3,-1,-3,-15,10
11476362,-7,-3,13,-1,0,-1,17,-22
11476362,-6,-8,-20,-5,-3,-1,-6,3
11489650,6,12,0,3,1,2,4,4
11489650,28,-4,0,-1,1,1,-15,-4
11497709,-32,10,22,0,-2,0,2,-5
11497709,5,2,-6,2,1,1,-11,3
11512661,-4,-8,-15,-4,-2,-2,5,-1
11512661,6,-9,-9,-2,-2,-3,-14,-1
11519946,4,2,-5,-3,1,0,13,15
11519946,-10,3,13,2,1,0,-5,-6
11535462,-2,5,5,1,2,-2,-19,-1
11535462,-9,-2,-17,-9,-11,-6,-1,-8
11536461,8,2,5,-2,-3,0,-16,1
11536461,-13,3,-4,0,-1,2,36,-1
11549462,13,-3,12,-4,-2,-2,-5,5
11549462,-10,0,3,3,3,1,-5,5
11557498,3,7,-5,-3,-3,-3,-11,-9
11557498,-7,-29,-11,0,-1,-2,1,4
11572718,-2,0,5,-2,-3,1,-1,-12
11572718,-1,5,4,1,0,1,6,5
11579457,0,-3,2,1,-1,-2,-15,9
11579457,6,10,1,-1,-1,-3,21,-2
11594670,-16,-12,-14,-4,-2,-1,2,-4
11594670,-13,-8,6,-1,-2,1,-2,-1
11603721,7,-4,-6,-4,-2,0,13,13
11603721,-5,8,2,-2,0,-1,-15,-3
11618682,9,9,10,2,1,0,10,6
11618682,7,5,1,0,1,2,-17,-9
11619682,-47,-10,-4,-1,-2,2,43,8
11619682,-4,0,2,0,1,1,-18,-9
11632996,4,6,-4,-3,-3,-1,38,11
11632996,-11,-9,-8,-1,-4,0,-12,-12
11639976,13,-6,-13,-6,-2,-3,-9,6
11639976,-2,9,2,-2,0,0,-7,-1
11654698,-4,0,9,4,1,-2,-12,-4
11654698,2,10,28,6,4,-1,3,0
11663695,5,-26,-18,-10,-4,-2,-6,4
11663695,3,-1,2,0,-2,-2,-5,9
11669978,-4,0,-4,-1,-1,-2,-15,-34
11669978,4,14,-5,-3,-3,-1,6,7
11677991,5,5,7,4,-2,-3,-19,-15
11677991,1,3,4,-1,-2,-2,4,3
11692701,-3,-3,-1,-4,-2,-2,-7,8
11692701,-13,5,-3,-2,1,0,-1,1
11699978,5,-2,-3,-1,-2,0,6,-1
11699978,1,-14,-3,0,0,1,-15,1
11715003,4,6,1,-4,-4,-3,0,-7
11715003,-5,-5,-11,-1,0,-2,-12,-8
11723004,3,-7,-3,0,0,-3,9,2
11723004,-6,-3,6,1,-2,1,-6,0
11731010,-1,2,-6,-2,-4,-1,-4,5
11731010,-4,-4,-11,-2,-1,-2,23,-1
11738194,9,-8,3,-1,0,-3,-7,2
11738194,-7,-3,0,-3,-3,-4,-4,-10
11753012,-3,-11,-19,-3,0,0,-9,3
11753012,23,6,28,0,0,-3,-18,-8
11760199,-61,-5,-40,-4,-1,0,16,8
11760199,9,9,0,-1,0,-1,6,-7
11775198,-2,-12,-9,1,0,2,1,2
11775198,0,-19,-4,-3,-4,-2,12,1
11783192,14,7,16,1,2,-1,-20,-5
11783192,-6,-6,-8,-8,-5,-3,-10,-3
11799199,0,9,4,-2,1,-1,19,14
11799199,-8,-3,-10,-2,1,0,-12,-9
11799199,30,7,8,3,0,-1,-7,-3
11799199,0,-4,-10,2,1,0,17,0
11812809,8,-1,10,-2,-7,-5,-6,-4
11812809,-9,-6,-8,-2,-3,-1,-5,4
11819815,4,-5,3,-1,0,1,-7,1
11819815,1,-1,-2,0,-1,-2,-15,-2
11834325,0,-5,1,0,3,4,34,3
11834325,-4,8,-3,-1,-1,-1,-5,-7
11842558,-3,6,-5,-4,-3,-4,-14,5
11842558,3,0,3,-1,-1,-1,16,-6
11858332,-5,8,12,0,-4,-3,-13,-1
11858332,0,-16,-27,-2,0,-1,-3,11
11859327,-21,-5,15,-1,-3,-1,-2,-8
11859327,-2,-11,-18,-2,-2,-2,-1,4
11872560,29,3,-9,-3,0,-1,-14,-2
11872560,-16,5,1,-3,-2,-1,9,-5
11879328,20,-4,26,0,-1,0,1,-1
11879328,-8,-3,-21,-3,-2,1,-14,-1
11894549,5,2,1,0,-1,-4,1,0
11894549,5,9,-10,-4,0,-1,-9,0
11902335,-4,-17,2,24,0,-1,-5,-5
11902335,-2,3,8,-19,-2,0,21,1
11919119,-6,-12,-17,-31,2,-1,6,-9
11919119,-7,9,3,-3,-2,-3,3,3
11920118,-1,15,-6,-2,-6,-1,-12,2
11920118,0,-23,1,16,0,-3,-10,3
11932804,-8,-9,-29,-16,-4,-3,-8,-14
11932804,5,11,-7,-11,0,-1,2,-3
11939792,13,12,9,-12,5,1,3,-1
11939792,-1,11,2,17,-2,-1,-6,4
11954799,-10,-22,-1,16,0,1,-1,0
11954799,-3,-10,10,27,-3,-3,-12,-11
11962574,-4,10,-10,-10,2,1,-11,0
11962574,2,-7,10,-1,1,-2,5,-1
11978675,-7,1,-6,31,-4,-2,1,-8
11978675,-2,0,-22,-46,-3,-1,12,7
11979576,28,-6,-2,-10,1,-1,-10,10
11979576,-27,5,21,34,-1,0,6,-14
11992809,5,12,-20,-3,-1,-1,-27,10
11992809,9,-14,48,-25,-7,-1,15,-16
11999789,2,10,-19,47,13,1,1,11
11999789,18,-5,-53,-65,-13,-5,-23,-1
12014802,-9,13,33,33,8,3,22,9
12014802,7,-18,50,35,-7,-4,-26,4
12022803,-31,-5,-61,-65,3,-2,0,-14
12022803,26,3,33,42,-1,0,25,3
12046810,6,5,23,5,0,1,-12,22
12046810,-3,6,25,-17,7,2,-34,-14
12047810,-51,-8,26,91,-1,4,96,-15
12047810,1,5,-24,13,-1,-6,-10,-13
12053149,-35,-2,3,13,-12,-8,-19,8
12053149,12,-6,-9,42,6,0,-8,6
12060111,-3,-6,3,-13,-11,-4,-16,-12
12060111,-12,10,9,-26,1,0,-7,7
12075099,-3,-33,-18,-18,-4,-2,2,-25
12075099,-5,-3,28,39,3,1,7,-8
12082847,12,1,-6,-15,-6,-4,-24,15
12082847,14,21,-3,27,-5,-1,17,7
12098853,6,-2,-10,23,5,1,-13,3
12098853,-12,-18,-6,-50,-3,-4,13,-3
12099849,11,-7,-19,9,-8,-3,-8,-18
12099849,-9,4,1,-13,4,1,-8,9
12112620,0,8,-1,25,-1,-1,1,-6
12112620,-5,5,-16,-4,-2,2,17,6
12119905,-1,-3,27,-54,-5,-3,-3,-2
12119905,-9,-5,-26,-51,-1,-1,-7,-6
12134914,7,1,7,33,-7,-6,-10,4
12134914,11,-6,-58,-79,0,0,13,-18
12142915,12,10,14,14,0,2,-9,27
12142915,5,-5,11,44,3,0,-2,14
12158915,2,0,5,-46,-1,1,-5,-19
12158915,-18,-5,-6,46,1,-3,25,1
12160217,-11,-30,0,44,1,-3,-18,-11
12160217,7,-9,-15,-69,-6,-2,13,15
12173113,21,14,29,-5,3,-1,-3,-2
12173113,-14,15,-7,13,-4,-2,-16,-8
12179916,7,3,-7,-16,-3,0,1,31
12179916,-4,2,8,24,0,-3,-5,-13
12194917,-6,-15,-3,-16,0,1,6,-6
12194917,6,19,-3,15,0,-1,-8,1
12203115,-11,-2,-2,-15,-2,-2,8,-15
12203115,-10,-25,25,16,0,-1,-18,7
12218648,-12,-8,-27,-16,-2,-2,6,7
12218648,14,-3,-12,-5,-4,-2,2,-6
12219873,-9,16,-13,7,0,-3,-11,-34
12219873,4,27,17,11,4,3,4,-12
12233181,3,-16,-13,-13,-4,-4,-3,4
12233181,-15,-6,-3,7,-4,-1,1,-14
12240182,-12,-8,-2,-3,0,-1,-5,1
12240182,-12,-14,0,3,-2,-3,-1,-10
12254401,-1,12,11,-6,2,-1,5,21
12254401,13,10,-5,6,-4,-1,-4,25
12262184,12,-3,7,-2,1,-1,2,6
12262184,-12,-11,-8,-6,-1,-1,-3,-12
12278445,-3,8,9,7,0,2,10,9
12278445,6,-3,-11,-2,-5,-3,-12,-15
12279185,4,-8,-1,-11,-6,-3,0,-6
12279185,-17,-4,5,6,0,0,-2,-5
12293186,-7,-4,-21,-11,-2,-2,0,-17
12293186,-6,2,16,3,2,0,-2,10
12300186,29,-1,-5,-3,-1,0,-1,3
12300186,-1,3,-8,3,-3,-1,-15,0
12323736,-4,-7,23,4,2,-1,-4,-4
12323736,-12,-7,-14,-3,-1,-2,-19,-11
12324700,16,-1,5,1,-1,2,38,21
12324700,1,2,-5,-1,-1,-1,4,-6
12338247,17,7,-3,-4,1,0,-2,1
12338247,-38,-9,-3,-1,-2,-1,7,22
12339246,-5,-6,-4,-3,-2,-4,-36,-20
12339246,-7,5,4,1,-1,2,47,-4
12352215,5,11,-5,0,-1,1,-2,-9
12352215,24,0,1,-4,-4,-2,0,10
12359428,-8,8,0,-1,0,0,0,22
12359428,-1,-39,-5,-3,-2,-4,-21,1
12374434,-7,3,-7,-2,-1,-1,20,-1
12374434,-6,8,3,2,0,-3,-5,-11
12382431,-6,-1,2,3,2,1,-2,-13
12382431,22,13,17,-2,-4,-6,-5,-7
12398473,2,1,-4,-6,-3,-2,-14,-3
12398473,13,5,-1,1,1,0,7,10
12399212,-21,-3,5,-2,-2,-4,6,0
12399212,-5,7,-3,0,0,0,-24,-1
12412789,-3,-13,28,-3,-3,-3,-4,-5
12412789,-10,-30,-30,-1,0,-1,9,-5
12419787,18,4,-1,-1,-1,-1,-15,-6
12419787,-11,6,-5,2,1,-3,-14,-3
12436150,-6,20,4,-3,-3,1,16,-1
12436150,9,-6,1,3,-2,0,0,0
12442152,-9,-8,-1,-5,-5,-1,-4,4
12442152,-5,-10,-5,-1,-2,-3,-15,-18
12459175,-3,6,-6,-6,-4,-2,-10,-5
12459175,24,3,3,-2,-1,-2,-11,-2
12461175,-38,-14,-19,-4,-2,-1,-5,6
12461175,-14,5,8,1,-1,0,4,6
12473176,0,3,3,2,0,-2,-14,-9
12473176,-5,4,-20,0,3,3,9,11
12479152,5,20,4,-1,-4,0,-8,-3
12479152,47,-39,-21,-9,-2,-2,18,13
12494159,-14,6,10,8,2,3,25,2
12494159,1,-1,19,5,-2,-2,-1,-8
12503173,2,9,0,-40,-5,-2,4,-14
12503173,4,21,-20,-5,0,-1,-13,6
12519238,2,-18,-10,11,-3,-4,-17,-10
12519238,-2,-5,-4,28,-2,-1,3,8
12519451,-7,-10,-7,-12,2,0,-5,-9
12519451,-7,20,13,-9,-1,0,4,0
12532245,2,19,6,15,-4,-4,-23,0
12532245,-17,-13,-8,-5,-2,-2,5,-1
12539251,5,-22,13,3,-5,-3,17,-2
12539251,-38,-9,-13,0,-2,-3,-18,-5
12556246,12,3,-1,2,2,1,11,8
12556246,24,8,6,-8,0,-1,-1,2
12562247,-27,-10,-3,-1,1,-1,16,-9
12562247,8,10,11,7,0,-1,-5,-2
12578247,-6,-15,-11,-15,1,0,15,7
12578247,-10,1,12,66,1,-1,-8,-9
12585533,27,7,-18,-54,0,-1,10,-4
12585533,-13,11,1,11,-3,-6,-7,-11
12592254,-31,-31,-10,-13,6,1,11,-2
12592254,31,8,-2,-10,-7,-2,-2,14
12600248,-1,4,-12,65,-5,-2,-2,-4
12600248,-1,-15,29,-8,6,0,-7,-5
12614649,17,10,18,-26,1,-1,7,-8
12614649,-10,-2,1,3,2,-1,31,2
12623098,8,1,4,54,-2,1,-13,15
12623098,5,-1,-16,-72,-3,-2,-10,-4
12637394,8,1,-41,44,-4,-2,22,4
12637394,-15,0,-13,-43,-4,-2,-15,-14
12645394,7,-9,17,-8,1,-1,-8,4
12645394,-13,-1,11,66,-3,2,11,-4
12653393,2,-16,-3,-42,-5,-5,-19,15
12653393,15,1,-16,-36,0,-2,0,-5
12660760,-18,3,4,2,1,-3,-31,-9
12660760,-11,1,2,16,5,6,57,5
12674681,-4,5,-7,4,-4,-4,-10,-20
12674681,1,-12,4,-2,-1,-1,2,19
12682701,8,12,4,11,2,0,-9,0
12682701,6,-17,0,-23,-1,-4,-4,-11
12697780,-13,11,18,21,0,-1,-19,-2
12697780,-12,2,-18,-28,-5,0,-2,-12
12705682,0,8,-3,3,2,-1,2,0
12705682,-2,-16,-18,62,-7,-3,0,5
12728215,3,-13,-11,-52,-1,-2,-11,-8
12728215,-15,0,-15,-11,4,-2,-11,-3
12729193,2,5,-1,-12,-5,-5,2,-1
12729193,9,-1,1,10,-1,0,-8,1
12736191,5,-4,2,-14,-3,0,-4,2
12736191,-7,1,17,19,2,0,-2,-3
12742476,4,2,28,-15,1,1,4,5
12742476,0,2,-21,-22,-7,-3,-1,-5
12758192,2,5,-5,31,5,2,1,0
12758192,-9,-15,-2,-29,-5,-1,-8,-4
12766193,9,-1,6,23,5,1,-5,-5
12766193,2,-15,4,-18,-7,-6,-29,10
12780195,-56,7,-5,-17,-5,-1,-3,-15
12780195,27,18,22,25,1,3,74,14
12781195,-4,-15,-9,-9,1,-2,-19,-2
12781195,5,-5,-9,-14,0,-1,-12,-1
12795200,7,6,1,21,-2,-5,-12,-1
12795200,-11,-7,-8,-24,-2,-2,-27,-14
12803195,-14,-2,16,-22,2,-2,11,1
12803195,5,19,3,-2,3,0,3,0
12818129,-2,1,-12,7,-2,1,0,-2
12818129,-4,-23,-17,15,-3,-2,-13,2
12826285,6,-8,5,21,0,-1,8,-6
12826285,-1,3,1,-17,-1,-3,-5,-1
12840573,14,-2,-11,-24,-2,0,4,2
12840573,1,23,24,35,2,-2,-7,2
12842287,-3,-14,-39,-23,-4,-1,-14,-8
12842287,-4,0,4,16,3,4,33,12
12854290,3,0,4,-25,-6,0,-7,-13
12854290,-15,-21,-17,-8,-8,-4,6,9
12863289,-3,4,17,18,3,-2,-14,-9
12863289,-43,2,9,-8,-1,-1,-2,-5
12878288,-25,1,9,18,5,3,77,5
12878288,11,3,0,-9,-4,-1,-10,-5
12885579,-9,-7,-8,-9,-3,-3,-5,-1
12885579,-5,-22,-15,-8,-4,-5,-8,0
12900290,8,-13,8,11,-4,-5,-25,1
12900290,-4,6,-1,3,4,-2,-8,-14
12901291,2,18,1,2,-5,-3,20,8
12901291,20,-6,8,-17,-1,0,-6,-3
12915656,2,6,-2,21,-1,-1,-12,-3
12915656,0,-3,-14,-28,-2,0,-7,-1
12922960,-5,-2,-20,-47,-3,-2,-8,0
12922960,7,-1,13,19,-1,2,3,0
12937565,6,-11,10,13,0,-2,-7,2
12937565,-12,4,5,0,-2,-4,-7,-3
12945558,2,10,14,34,2,2,8,-1
12945558,22,5,-21,5,0,0,17,-6
12960593,2,-13,-12,-57,-4,-4,2,8
12960593,5,0,6,2,-2,2,45,8
12961561,3,2,0,10,1,1,-4,2
12961561,5,8,-3,-18,-1,0,-8,-3
12974780,7,-4,11,27,-1,-2,-30,-1
12974780,-8,-2,19,16,2,-3,-14,-5
12982784,38,6,-81,-26,-4,3,11,1
12982784,-26,5,40,4,2,-2,0,1
12997816,-18,-7,1,4,-2,-4,-19,-3
12997816,-11,-4,-12,-18,0,1,16,3
13004711,15,-2,3,2,1,-1,-1,-5
13004711,6,-8,-12,2,-3,-4,-14,1
13020795,4,3,-10,-8,-3,-2,-18,-3
13020795,6,1,-3,0,0,1,20,-8
13021814,-24,1,26,7,-2,-4,-4,-2
13021814,-8,12,0,29,3,5,14,11
13035509,-13,-7,11,-16,-4,-3,-15,-10
13035509,16,19,-24,-14,0,-1,16,14
13042725,-9,-55,-4,-2,-3,-6,-7,-11
13042725,-31,-6,0,-3,-4,-3,-16,-4
13057722,18,3,-7,19,5,2,-5,2
13057722,-1,14,6,9,0,-3,-41,-6
13065824,-8,8,4,-23,4,2,14,1
13065824,17,-3,-2,-5,-7,-4,-9,-1
13080510,33,12,-15,-14,-2,-1,14,1
13080510,-28,-15,8,24,0,-4,-27,1
13081508,-8,-9,2,-1,-2,1,13,1
13081508,3,-19,-1,6,-1,-2,-15,4
13094793,8,16,-17,-24,0,2,29,0
13094793,-3,-14,0,-15,-5,-4,-17,-4
13102515,-8,15,14,9,3,2,-15,-8
13102515,16,0,-13,-29,1,0,-7,3
13117802,-19,9,8,34,-1,-3,-15,1
13117802,0,-14,-1,-18,-2,0,18,-4
13125601,-5,-1,12,58,-2,-4,-5,-1
13125601,10,9,-33,-64,-2,1,4,-9
13140614,-10,-18,-2,-4,1,1,-9,-3
13140614,-2,-1,13,30,2,-2,-12,-9
13141608,11,19,-3,-20,-3,1,-2,8
13141608,-11,-8,3,39,1,-2,31,-6
13156608,0,-29,-30,-21,-3,-1,0,2
13156608,-4,7,-4,-18,-2,-4,-25,-4
13162611,22,-10,7,-18,-4,-1,31,8
13162611,-46,10,-4,24,0,-2,-2,-15
13177889,20,2,-3,-2,0,2,14,7
13177889,23,-7,4,16,-1,-1,-8,5
13185897,2,15,-8,-13,3,0,-9,-14
13185897,12,-11,-3,-44,-6,-3,-4,-7
13200891,-2,-8,33,37,0,-1,3,4
13200891,-15,4,7,4,0,1,8,-11
13201611,8,-1,-25,8,-6,-3,0,3
13201611,1,3,-2,-26,-1,-2,-20,5
13216150,-15,7,-5,-21,0,0,-11,-1
13216150,20,-9,4,12,2,2,45,0
13222906,-26,-9,37,14,-2,-4,-25,-1
13222906,4,4,-46,-19,-4,1,8,-2
13238145,-4,-8,3,7,0,-2,-4,0
13238145,-5,22,9,-6,-1,-2,-14,-11
13245916,7,-11,-13,-17,-6,-3,1,-2
13245916,-15,-6,20,19,2,-1,-1,4
13261151,10,7,-6,22,-1,0,17,1
13261151,-13,6,-3,28,-2,-4,-15,-3
13261916,-1,-4,-23,-49,-6,-2,5,-6
13261916,10,11,29,21,0,-3,-13,-4
13276148,-12,-6,-17,15,-2,-2,0,-6
13276148,3,-5,-11,-34,0,-2,-17,1
13283151,-4,-9,-20,-3,-2,0,41,-2
13283151,-9,14,20,21,2,0,42,5
13297918,9,-19,18,4,-4,-3,-4,-4
13297918,0,-7,-29,-22,-3,1,-16,1
13306148,-9,3,4,21,3,-1,-15,-2
13306148,18,-9,-10,8,-2,-2,-8,0
13320743,5,5,8,0,-2,-2,6,1
13320743,-52,-6,-19,-35,-7,-3,-11,-3
13321708,-5,0,20,19,5,0,-18,-12
13321708,6,-8,-3,14,-2,0,-2,-2
13335223,-10,8,5,-6,-3,0,4,14
13335223,12,-20,21,19,2,-1,-5,-5
13342223,0,35,0,-9,-4,-3,-1,3
13342223,-4,-31,5,-10,1,-1,-10,4
13357219,5,-8,-23,-41,-4,-1,-11,-10
13357219,20,0,1,15,6,1,11,7
13364219,2,0,9,20,-4,-1,-9,7
13364219,8,3,4,-17,1,-2,1,-7
13380219,-29,7,8,23,-1,-3,-29,-10
13380219,31,-7,-19,-25,1,5,41,8
13381219,4,4,9,5,-1,-2,-15,3
13381219,-7,-3,-8,-19,-7,-4,-4,-10
13395219,-12,5,2,15,1,-3,-25,-11
13395219,-7,-12,16,11,-3,-1,2,-1
13402220,-17,-9,-10,-10,-2,-3,-12,-6
13402220,-5,20,-15,-25,-5,-1,8,10
13417765,-5,-30,17,8,0,0,18,-2
13417765,-6,3,-15,-10,-5,-4,-16,0
13433237,-4,-6,-10,-36,-2,-2,7,-3
13433237,15,7,2,17,0,-3,-26,-1
13440237,-3,8,-3,0,6,3,52,5
13440237,7,4,3,9,-7,-5,-11,-4
13441237,-30,-14,-11,4,-3,-1,-4,-2
13441237,4,12,2,9,1,-4,-22,4
13455240,7,-4,6,-6,0,3,26,1
13455240,-15,-6,-9,4,2,-1,-12,0
13462239,3,-4,11,-11,3,2,6,-7
13462239,13,4,-13,-22,-4,0,1,1
13477438,-12,-8,-17,-14,-4,-3,-9,1
13477438,11,4,20,30,0,-2,13,-3
13485486,6,14,-20,-12,-1,-3,-18,1
13485486,-7,-20,19,28,-2,0,10,-7
13500484,9,2,-7,-38,-5,-1,-14,-1
13500484,-1,13,21,15,3,2,0,-5
13508487,9,-14,-38,-17,-3,-3,-6,12
13508487,-8,-16,6,-6,-2,0,27,-10
13515993,-1,-9,-2,2,-1,-4,-14,-5
13515993,9,11,7,-8,-3,-1,-17,6
13522995,8,-6,12,29,5,1,32,0
13522995,-8,6,10,4,-2,2,-5,5
13537686,8,3,1,12,-1,-1,-26,-2
13537686,6,2,-17,-31,-2,0,32,-5
13545454,-34,-9,9,6,1,1,-14,1
13545454,10,9,5,11,-2,-2,-10,-2
13561691,2,-2,-9,39,-1,0,-1,0
13561691,12,6,8,-53,-3,-3,-15,2
13568479,-27,-4,-8,10,-2,-1,-7,-8
13568479,-2,5,-7,9,2,-2,10,-1
13575718,0,-12,-14,-13,-4,-3,14,3
13575718,4,8,19,13,2,-2,-9,1
13582684,6,-1,17,-3,-5,-1,10,6
13582684,2,1,-4,-14,1,0,-13,-6
13597687,7,11,7,-2,1,-2,-7,0
13597687,-17,-9,-18,-9,-2,-1,20,-5
13605714,7,1,-8,12,0,-2,-10,1
13605714,-2,4,-6,-34,-2,-1,-9,-1
13620750,0,0,7,-8,0,-2,3,1
13620750,-8,-2,4,20,-2,-3,-14,-8
13628410,-2,-5,0,19,1,0,-17,4
13628410,23,-12,3,-4,-5,-2,15,-3
13635412,-37,10,8,-2,-2,-1,-12,1
13635412,-14,-16,-2,37,1,-1,-3,-1
13642366,21,6,-21,-57,-5,-2,4,2
13642366,-14,-9,3,17,-2,-5,-14,-5
13657368,10,14,9,16,3,-1,6,-3
13657368,-8,-5,-24,-37,-5,-1,-5,-3
