timestamp,emg1,emg2,emg3,emg4,emg5,emg6,emg7,emg8
188992,-1,6,15,4,-2,-2,-3,0
188992,1,1,10,-1,-3,-2,-3,-1
189707,-4,-1,-10,-3,-2,-2,-1,0
189707,3,2,-6,-3,-1,-1,-2,3
190708,-2,-6,9,2,0,-1,3,1
190708,-2,1,11,2,0,-1,-1,-5
191708,-5,10,11,4,0,-2,-5,2
191708,7,-11,-35,-5,-3,-2,-1,-5
203028,-2,5,3,-7,-5,-1,-3,-1
203028,-3,-8,-6,-2,-2,1,-4,-2
210709,7,0,7,6,0,1,-3,-5
210709,6,-19,8,-13,-2,-2,-2,-6
216710,2,14,-20,2,1,-1,2,4
216710,-3,-8,-2,-2,-2,-2,5,-5
231712,-6,-9,8,-8,-1,-1,-10,-4
231712,-6,19,20,14,-3,-3,-1,0
242397,0,-9,-11,-4,-3,-2,-4,-2
242397,0,1,8,-2,0,0,1,-3
246735,-4,-5,-9,3,1,-1,-2,0
246735,-8,-6,12,-2,-3,-1,-2,-1
262752,0,7,-35,-8,1,1,2,0
262752,-3,7,-13,0,-6,-4,-7,-1
270747,2,-26,-1,-7,-7,-4,4,-3
270747,-5,2,5,1,2,0,-4,-2
300747,0,5,-8,-6,0,1,-2,2
300747,4,4,-1,1,-2,-2,-2,0
307753,-1,4,-4,-3,-1,-1,-2,-6
307753,-3,-5,7,3,0,0,-2,-2
308747,-6,0,-9,-2,-2,-2,-1,2
308747,12,-3,-2,0,0,1,-2,-4
309749,-3,-9,-10,-2,-4,-3,5,-1
309749,2,5,12,-1,0,1,-15,0
322754,-1,9,3,3,1,0,3,-5
322754,-7,-10,-30,-14,-8,-4,-2,-2
329750,0,13,1,4,1,1,0,0
329750,5,-9,-28,1,0,-2,-2,-4
336749,1,-2,-15,-11,-4,-5,-2,-4
336749,-5,-10,-4,-4,-1,-1,-2,0
351756,1,6,24,3,0,0,-2,1
351756,-7,10,11,6,-2,-2,2,0
359761,0,-26,36,6,2,2,1,4
359761,-4,16,-17,-15,-2,-2,-1,-1
366761,-4,-3,5,-4,-1,-2,-3,1
366761,2,-6,-8,-6,-2,0,8,1
382767,5,16,10,7,-3,-4,-1,-2
382767,-1,-5,30,9,0,0,-1,0
389764,-9,-10,-22,-6,0,0,-2,4
389764,-1,8,8,2,-1,0,0,0
396764,-1,-15,-9,0,-3,-2,-3,-3
396764,-1,4,3,-8,-8,-5,-3,-1
411892,-3,4,9,0,2,0,-1,-4
411892,5,-24,-18,-7,-2,0,5,-2
419764,-9,-6,-16,-3,-1,-1,-3,-4
419764,-1,1,12,8,3,1,0,-1
426765,1,6,-22,-5,-5,-3,-1,3
426765,-2,4,11,2,1,-3,-4,2
442772,-3,-5,18,-4,0,0,0,-6
442772,-12,-6,-14,4,2,0,0,-1
449773,8,-5,-4,0,-2,-1,-4,-3
449773,3,-3,2,-6,-2,-2,-2,2
456777,-3,14,-20,-3,-3,-1,-1,0
456777,3,2,22,5,3,0,3,-1
471778,-7,-18,-12,-7,-4,-1,1,-6
471778,13,14,1,4,0,-1,-3,2
479779,-7,-4,1,1,0,-1,-2,1
479779,-5,-17,-29,-19,-5,-4,-2,-10
486780,-1,1,7,0,-2,1,-1,-2
486780,-5,4,-8,-1,-1,-1,1,-5
502780,3,10,0,4,3,-1,-4,1
502780,1,-19,14,12,8,3,1,5
509781,-9,1,-20,-1,-4,-5,-3,-8
509781,8,0,3,-5,-4,-3,-1,3
524782,5,-2,-6,2,0,0,0,-1
524782,1,1,23,3,0,0,-1,2
531782,5,2,-18,-3,-1,-1,0,0
531782,-13,-20,-10,-10,-5,-4,-4,-2
539788,-4,1,3,4,2,-2,1,-2
539788,6,5,-9,-2,-2,-1,0,1
547289,-3,-7,13,0,-2,-2,-4,-7
547289,-7,10,-6,-2,1,1,1,2
562794,0,5,-1,-3,-1,-2,-2,-1
562794,0,-4,1,14,-1,-2,-2,-1
569794,-1,1,-22,-30,-2,-2,-1,-3
569794,-2,-10,26,7,1,0,-1,-3
576894,-4,-15,-19,-13,-5,-1,-1,-3
576894,-5,13,-1,3,-3,-1,-4,-1
591796,-5,1,24,10,1,-1,-5,3
591796,-7,4,-25,-7,0,0,3,-7
599881,5,4,4,0,-3,-1,-1,10
599881,-1,-2,-2,2,2,0,-3,4
614802,9,5,-6,-8,-2,1,-3,3
614802,-3,-7,-6,-4,-2,-3,-1,-2
622992,-2,10,16,10,3,-1,0,-4
622992,-3,-3,-11,-11,-5,0,-1,-1
629797,-3,3,18,9,1,0,2,2
629797,-2,2,-5,2,3,0,-8,-5
636992,12,-7,-8,-9,-4,-1,2,3
636992,-13,-10,21,-3,0,-1,0,-3
652249,0,-4,-4,7,2,-1,0,-3
652249,-2,-2,17,0,-2,-2,0,5
659751,3,3,-12,-4,-1,-1,-3,0
659751,-3,5,1,-10,-1,-1,1,-2
674751,-2,-2,-3,5,1,-1,-1,0
674751,-3,13,7,2,-1,-1,3,-6
682750,-7,-11,-22,0,-2,-1,-2,7
682750,-1,2,-10,-1,-3,-3,-1,0
689753,-3,-6,4,-1,-2,-1,-2,-8
689753,-5,8,5,-2,0,0,-4,-7
696506,-8,-29,-3,0,0,1,1,2
696506,3,0,-22,-8,-4,-3,-4,-7
711704,5,0,2,-2,-4,-2,-5,-8
711704,6,3,18,-2,-3,-1,0,9
719758,-15,3,5,1,1,0,11,-6
719758,0,7,9,2,-1,-2,-3,5
743015,1,-4,3,-1,1,0,-1,2
743015,1,-3,-9,3,0,-1,-1,-6
744261,-1,-6,3,-1,-6,-4,-7,-8
744261,7,3,-2,-4,1,-1,-1,0
750260,-7,8,0,0,-1,-1,0,-2
750260,-5,-20,-25,-3,-3,0,-1,6
756929,-1,11,7,-1,-1,1,-2,-1
756929,-8,-25,-15,-1,-3,-2,3,-3
771929,9,-1,3,0,-3,-1,0,5
771929,-1,0,35,5,-2,-3,-1,-3
779726,0,13,-1,-11,-2,-1,-7,-7
779726,1,8,-16,0,0,1,0,0
794929,9,15,18,2,2,-1,-2,1
794929,-9,-14,-9,-4,-4,-3,-4,-3
802927,1,-3,18,3,-2,-1,-5,-14
802927,1,5,9,-2,1,-1,-1,4
809926,-5,-11,-5,4,-1,-3,-1,2
809926,-1,-2,-9,-4,-2,-2,-3,-3
816721,-1,5,-6,-2,0,-1,-1,-12
816721,2,-7,-1,-3,-4,-2,-2,-5
831721,5,7,10,3,3,2,2,12
831721,-3,-4,-13,-3,-4,-1,-1,-4
840235,-10,-22,-10,1,-1,-3,0,5
840235,-5,2,-23,-5,-2,-4,-3,-7
854745,-5,-1,-9,-4,-2,-2,-1,-2
854745,0,2,-9,-4,-1,2,0,2
870746,3,7,4,2,1,0,-1,-2
870746,0,2,7,2,-1,0,-1,-6
872746,-7,-7,-10,-2,-3,-3,-1,0
872746,-3,-2,6,-4,0,0,0,-5
876746,2,-9,21,0,1,-2,0,7
876746,-4,11,3,4,1,0,0,-3
891751,-7,-25,-47,-14,-4,-2,0,0
891751,2,9,3,-1,-1,0,-1,0
899957,0,1,5,0,0,-1,-2,1
899957,0,1,11,5,1,0,-2,2
915025,-4,-1,21,2,0,0,-2,-3
915025,7,7,7,1,-2,-2,0,-3
922790,-2,7,-22,-5,-2,-2,-2,2
922790,9,-3,5,-3,0,0,0,-3
929749,2,-5,3,0,-3,-2,1,-6
929749,-3,-8,-4,-3,-1,-2,-1,3
945198,-1,0,2,1,1,0,1,-4
945198,-1,1,-3,-5,-7,-5,-3,1
951958,-9,-9,0,-2,0,-1,-2,0
951958,0,-2,-7,-5,0,-1,-3,-10
960212,1,7,-1,1,0,0,-2,5
960212,-4,-2,-7,-1,0,-2,-1,-1
975300,-1,-3,2,2,0,0,0,-3
975300,1,10,-3,4,1,-1,2,-1
983264,-2,-16,-28,-10,-5,-3,-2,-5
983264,-2,9,20,2,-1,0,-1,1
990302,-2,-6,-13,-7,-4,0,-7,-21
990302,-2,-2,16,5,0,0,3,5
1005008,0,-2,-2,-5,-2,-2,0,-3
1005008,5,5,7,-2,-3,-2,-1,-3
1012009,-6,14,-12,0,-1,-2,-2,-1
1012009,10,2,4,2,-1,0,-3,-7
1020009,-3,0,-5,-2,-2,-1,-1,8
1020009,-7,-31,-3,-2,0,-2,0,-3
1035004,-1,-3,6,-3,-3,-2,0,-2
1035004,-5,-1,-10,-4,-5,-2,-4,-1
1043026,5,13,7,-1,-1,-2,-3,1
1043026,1,-1,-5,5,5,1,-1,2
1049990,-6,2,11,0,-5,-3,0,5
1049990,-4,-4,-14,-4,0,-2,-2,2
1066023,4,-5,2,1,-3,-2,-1,-1
1066023,-3,6,-4,-3,0,-1,0,-1
1074009,6,4,0,-1,1,0,0,-5
1074009,-7,11,5,2,-1,1,2,7
1080005,-3,-26,-17,-2,-2,-2,-3,-6
1080005,-6,5,-18,-4,0,-3,-4,-2
1095041,3,-11,1,-3,0,-3,2,7
1095041,0,-11,-19,-6,-5,-3,-5,1
1103006,-3,24,19,3,0,-1,1,-6
1103006,2,-11,-3,0,-4,-1,-2,-4
1110007,4,6,-4,0,0,1,-1,11
1110007,-7,2,0,1,0,-2,-4,-4
1125042,-6,-19,-9,-2,0,-3,3,3
1125042,3,3,-21,-5,0,1,-15,-9
1132008,2,0,10,2,-1,-2,7,0
1132008,-3,-13,14,3,-1,-1,-1,1
1147016,2,12,-5,-5,-4,-1,-2,-9
1147016,-1,4,4,-5,-4,-4,0,3
1156021,-4,-12,-12,2,0,-1,-3,-11
1156021,-1,9,0,-6,-3,-3,0,7
1163022,-1,-22,13,3,2,0,-3,-5
1163022,-5,3,-5,-1,-4,-2,1,2
1170022,-2,8,-8,-8,-3,-2,-1,8
1170022,-7,-8,-7,-3,1,-4,-1,-13
1185023,0,8,3,-3,-2,-2,-2,11
1185023,-3,0,6,2,1,1,2,1
1192023,-7,2,12,1,0,-2,-2,-1
1192023,7,-12,-15,1,-3,-1,-3,-7
1200024,-2,2,-11,-2,-2,-2,-1,0
1200024,-5,-2,14,-1,1,-1,-1,4
1215060,-5,0,-4,-4,-5,-4,-5,-6
1215060,2,10,2,4,3,1,3,15
1223065,2,11,-17,-5,-1,-1,-2,-1
1223065,-4,-8,5,-1,-2,-1,3,4
1230025,-5,-7,-18,-2,0,-1,-3,-5
1230025,0,-19,14,4,1,-1,0,1
1245278,-2,9,13,-2,-1,-1,-2,-12
1245278,-1,-7,4,-2,-4,-4,-2,0
1252319,-1,6,-18,-1,-1,0,1,1
1252319,-4,-3,-2,-4,-3,-3,-3,-8
1259696,0,-2,5,1,0,-2,1,-1
1259696,4,4,4,0,1,0,0,-2
1274698,-9,-6,8,2,-1,-1,-1,-2
1274698,-5,-6,-6,-1,0,-1,1,6
1282694,-5,-4,-7,-1,0,0,4,2
1282694,-1,4,0,-3,-2,-2,-1,-4
1296455,4,1,12,0,-3,-3,-3,-3
1296455,-8,10,10,1,-2,-1,5,-6
1304652,10,-5,-6,-1,-2,-3,-7,-5
1304652,3,-19,-10,-2,-1,1,4,1
1319652,-2,13,-1,3,2,-1,0,-1
1319652,-5,4,11,-3,-3,0,-3,3
1320456,-7,-5,12,2,0,0,-1,-4
1320456,-2,-5,4,-6,-3,-3,-1,-1
1334702,4,2,-12,0,-1,-3,-3,2
1334702,3,-6,-11,-3,0,0,-3,-6
1342869,0,-2,-3,1,-2,0,-1,1
1342869,-4,3,-2,1,0,0,2,1
1357361,-3,-3,4,0,-3,-1,-1,-2
1357361,-5,11,-11,-7,-2,0,-1,-8
1364362,1,-12,-1,-4,-4,0,-1,3
1364362,-6,0,-2,0,1,0,0,0
1379567,1,-5,11,0,0,2,-3,-1
1379567,-6,2,-20,-6,-2,0,2,-4
1381363,10,3,-4,1,1,-2,0,1
1381363,-11,6,20,0,0,-1,-3,-21
1394404,16,-17,-6,-3,1,1,3,18
1394404,-2,20,5,2,0,-1,-3,-11
1402369,-9,-15,-6,-2,-1,-2,-1,-3
1402369,4,4,-2,4,0,-2,-13,6
1416369,-4,-5,0,-9,-9,-2,13,-6
1416369,5,-4,4,1,1,-1,-1,3
1432365,-4,-2,0,-3,-2,-3,-3,-1
1432365,-4,2,-12,2,0,-1,-3,-7
1439872,-2,-3,18,1,-1,-2,-6,-1
1439872,2,-3,-3,0,-2,1,-2,-2
1440873,3,8,1,-2,-1,-2,4,9
1440873,5,-4,-10,-1,0,1,1,3
1454424,-7,-1,-1,-2,-2,-2,-2,-4
1454424,-6,-8,-3,-4,-2,-1,-1,-2
1462429,-3,-6,-2,1,-2,-1,-4,-4
1462429,2,2,-5,-3,-3,-2,1,-1
1476389,5,0,14,4,1,-3,-6,-4
1476389,1,8,-17,-5,-1,-2,0,1
1484390,-4,-7,1,0,-2,-1,-3,-3
1484390,1,-13,-4,-10,-9,-6,1,23
1499392,-6,9,1,3,3,2,-2,-19
1499392,4,-6,3,0,-2,-2,-6,-13
1500391,10,-4,-2,1,1,0,8,12
1500391,5,-8,-4,1,1,-1,1,-3
1514392,-8,0,5,-3,-1,-4,-4,-10
1514392,-2,-2,22,3,0,-2,-1,2
1522432,-5,18,-11,-5,-4,-2,-4,-7
1522432,1,2,5,3,1,4,1,-5
1536393,2,-29,-16,-4,0,1,-10,7
1536393,-15,3,-5,1,-2,1,12,-1
1544898,-8,15,7,-3,-2,-3,-5,-14
1544898,-10,0,-4,-5,-2,-2,4,8
1559404,4,-23,-5,0,-1,0,-2,-3
1559404,6,12,5,-2,0,-1,-4,-1
1560404,-7,-18,-16,-5,-5,-3,-4,-1
1560404,0,11,-3,3,-2,-3,1,-3
1574445,-14,12,18,-1,-1,-1,-1,-9
1574445,21,-18,-34,-10,-2,-4,-5,6
1582411,-3,-6,6,-1,1,-1,5,1
1582411,3,0,-2,3,3,0,-6,-5
1596407,-1,7,2,3,-2,-1,0,3
1596407,-7,-6,-4,-4,-4,-4,-3,2
1604407,1,1,21,6,1,-1,-2,-3
1604407,-5,-8,-25,-11,-7,-3,0,4
1619407,3,18,-4,-5,-1,0,0,10
1619407,6,-1,2,0,0,-1,-1,0
1620408,3,-9,2,-2,-3,-1,-1,-3
1620408,-1,-6,20,1,-1,0,-2,-3
1634408,5,5,-13,-2,-2,-2,1,8
1634408,-8,-7,-9,-2,-1,-1,-5,-7
1642918,-5,6,4,1,2,1,-3,3
1642918,-1,11,11,-1,-3,-3,-2,-12
1656438,-2,-27,-9,-4,-2,-1,1,8
1656438,4,0,2,1,-2,-1,0,2
1664433,0,0,-6,0,-1,1,-4,4
1664433,-8,-9,0,-1,0,0,-2,-13
1679434,6,7,-15,-3,-1,-3,-1,-9
1679434,-10,-12,0,3,1,-1,2,10
1680435,-2,13,-1,-2,-1,-1,-1,1
1680435,-3,-3,-10,-2,-2,-2,-3,-5
1694435,0,-12,3,-2,-2,-3,-2,-3
1694435,0,10,15,9,4,2,-1,-3
1709441,-2,5,-14,-9,-3,-4,-3,-2
1709441,15,-3,25,2,1,1,1,-2
1716441,-6,15,-43,-7,-2,4,5,0
1716441,-12,-41,2,-19,-14,-5,-2,-5
1724437,14,4,-21,-8,-4,0,1,1
1724437,-8,22,-3,6,4,-4,-7,-14
1739962,-7,-17,26,11,4,0,5,20
1739962,-20,9,-4,-14,-5,-4,-7,-15
1740962,-2,-11,-18,-10,-8,0,-1,1
1740962,4,-23,7,-3,-3,-1,1,11
1754519,13,4,-28,-1,-3,-5,-8,-18
1754519,26,5,9,6,5,6,7,22
1762484,-33,-1,14,4,2,-4,-16,-29
1762484,-67,-6,-18,-8,-5,-4,1,5
1776485,35,21,53,14,9,5,28,4
1776485,-9,-16,-11,5,1,0,3,-3
1784480,23,-2,3,-3,-2,-2,6,12
1784480,2,9,2,3,1,0,-15,13
1799486,-18,-8,-5,-7,-5,-2,-11,-8
1799486,7,4,-6,-4,-3,-6,-1,-10
1800481,-7,4,6,3,1,0,4,3
1800481,13,-12,-12,-2,-1,-1,0,-7
1814482,-18,-1,2,-5,-4,-2,-12,-3
1814482,6,5,-7,1,1,1,-4,3
1822487,0,0,3,4,0,0,-3,-1
1822487,12,2,2,0,0,0,1,-7
1836488,1,-2,-8,-4,-5,-3,-5,-33
1836488,-13,6,4,3,1,2,0,30
1845233,-2,-7,3,3,2,-1,-16,-40
1845233,1,-3,-9,-4,-7,-5,15,-4
1859693,11,-6,4,3,4,4,8,15
1859693,4,6,-10,-1,-8,-5,-12,9
1860693,15,-6,-21,-13,-5,-5,11,22
1860693,13,3,12,4,0,1,10,31
1874912,-42,2,6,0,0,-2,-12,17
1874912,0,-18,1,2,5,2,4,9
1881906,2,-4,-2,4,1,-2,-7,-3
1881906,-11,27,9,3,1,-3,-16,-31
1896696,5,-26,6,-3,0,0,-1,7
1896696,4,3,16,5,2,-1,-1,-24
1904984,-23,-15,-21,-2,-3,-1,-4,-3
1904984,4,-7,-13,-3,0,1,0,-7
1919998,-4,16,-4,0,0,-3,2,1
1919998,11,12,-11,-5,-3,-2,-1,-11
1928001,-2,4,23,5,2,-1,2,-11
1928001,3,5,-1,3,1,-1,1,14
1934700,11,3,-14,-5,-3,-4,-5,-7
1934700,-17,-21,-3,-2,-1,-4,0,2
1941710,-2,2,8,-2,-2,0,3,9
1941710,0,-9,-5,1,1,0,-4,-2
1957023,-25,-8,-9,-9,-7,-5,-7,-27
1957023,3,7,2,-2,-2,-3,-1,0
1965006,8,10,9,3,-1,2,6,-5
1965006,-7,0,-6,-5,-4,-2,-3,-9
1980006,5,5,-18,-3,1,-2,-6,-13
1980006,-2,5,6,-1,-4,-1,2,1
1988006,-2,-8,-3,-5,-3,-3,0,9
1988006,3,-7,1,0,-1,0,0,-9
2003349,2,6,12,3,1,0,-13,6
2003349,-9,-6,-5,-1,0,-2,8,-10
2004008,-4,3,2,0,-1,-2,-2,4
2004008,2,-11,0,-5,-1,-1,-4,1
2017351,-2,3,5,0,-3,-2,-3,-3
2017351,14,-1,-13,-4,-2,-1,-8,-8
2025015,-7,3,-6,-2,-1,-2,-5,4
2025015,4,0,3,0,-1,-2,-5,-36
2040317,-7,3,-16,-3,-2,-1,2,36
2040317,4,-35,-14,-3,-1,4,21,-7
2047819,-5,21,5,0,-2,-3,2,6
2047819,3,-5,11,-1,-1,0,-5,1
2063148,-3,12,-15,-5,-5,-4,-31,-12
2063148,21,19,2,4,2,1,-5,4
2064149,6,-17,1,1,1,1,20,8
2064149,4,6,-14,-7,-2,-1,0,5
2077371,-8,-15,5,-2,-2,-1,4,-20
2077371,-18,5,4,0,-2,-4,-14,-2
2085372,10,-4,-6,-2,-1,-1,-9,-4
2085372,-3,-5,1,-1,-1,-1,-1,7
2100150,8,9,6,6,1,0,8,3
2100150,-8,-2,1,-8,-5,-3,-2,-3
2108374,-10,-14,1,2,1,0,-3,-11
2108374,5,4,-4,-1,0,0,5,8
2123152,6,-9,-5,-1,-5,-2,3,2
2123152,-19,16,-16,-8,-1,-4,-1,-4
2124354,-2,3,2,-1,-1,-1,-5,-4
2124354,-5,-23,-6,-2,-1,-4,-4,5
2137153,-2,-17,2,1,1,-1,3,4
2137153,6,13,12,3,-2,-1,8,-20
2145163,-9,1,2,-1,-1,-1,-1,4
2145163,-3,-19,-12,-3,-2,-3,-1,-2
2160458,4,10,8,0,-1,-2,1,-8
2160458,-4,-5,7,0,-1,-2,-10,3
2167688,3,5,-7,-6,-3,-2,-2,5
2167688,-7,4,0,-1,-2,-1,13,4
2182521,20,4,3,-1,2,0,-20,-2
2182521,-1,-4,-3,0,-3,-3,-15,3
2183459,-3,3,-1,-3,-1,-2,4,-2
2183459,-1,-4,-7,-3,-3,-3,-11,-7
2196460,-13,-3,0,0,2,-2,9,-2
2196460,1,-6,-2,-2,-1,1,-9,3
2204679,-2,-4,-9,-6,-7,-3,-6,-8
2204679,4,6,33,-3,-3,-1,2,-3
2219467,-11,-10,-18,-3,-2,-3,-6,-9
2219467,1,4,-17,1,3,0,3,-2
2228462,-3,8,7,3,2,1,3,0
2228462,7,-1,3,0,-1,1,2,6
2243018,0,-1,7,-1,-1,-1,6,12
2243018,-1,8,3,1,0,0,4,-3
2244018,-11,-17,5,2,-2,-1,2,-4
2244018,-1,15,-14,-3,-2,-3,-25,-2
2256491,-1,-11,-3,-1,0,-1,13,8
2256491,1,-7,-5,-1,-2,-1,2,-4
2264490,0,-7,-6,-3,0,-2,-4,-5
2264490,-2,6,0,-1,-2,-1,-1,1
2279705,0,3,-4,-1,-1,0,7,-1
2279705,-5,-2,8,-2,-3,-3,-8,-8
2287703,8,6,2,1,-1,-1,-2,8
2287703,-5,2,-4,1,-2,-1,0,4
2302706,0,-5,-4,-3,-4,-2,2,-8
2302706,-7,-7,0,-2,-3,-4,-2,3
2303492,2,-4,5,0,0,-1,-9,8
2303492,-7,0,-6,-1,-3,0,54,0
2316706,-6,20,5,-1,0,0,-19,-6
2316706,11,-24,9,8,5,2,18,5
2324499,-2,22,19,-2,-2,-2,-8,-1
2324499,-3,-29,-1,1,-1,-1,-13,-2
2340301,-3,3,-8,-6,-3,-3,1,-1
2340301,-1,-3,1,-2,-1,-2,-5,-3
2348217,2,-2,-10,-2,-1,0,0,-2
2348217,0,11,5,1,0,-1,-7,-2
2363051,2,0,7,0,-3,0,6,3
2363051,-6,1,-17,-1,-2,-1,-7,-7
2363942,5,1,0,-3,-3,-2,1,-4
2363942,0,4,-6,-2,-2,-1,-3,11
2377206,0,-21,-3,-1,1,-1,-4,-9
2377206,1,6,10,3,2,0,0,0
2385173,-6,-11,-5,-3,-2,-2,-1,-1
2385173,-4,1,-11,-4,-1,-3,-12,-4
2400209,-7,-1,4,-6,-3,-3,9,12
2400209,20,7,7,2,0,-1,0,2
2408282,-2,-7,-12,0,2,0,-2,-6
2408282,1,-4,-2,-3,-1,-2,-13,-5
2423008,4,16,2,2,1,-1,16,0
2423008,-8,-17,-22,-3,-3,-2,-5,-5
2423947,-9,-10,-12,-5,-2,0,3,5
2423947,-5,6,10,-2,-3,-3,-3,-7
2436951,1,8,0,1,0,1,-1,2
2436951,-6,3,11,-3,-3,-2,-4,-5
2445471,10,0,-2,1,0,-2,2,-4
2445471,2,-14,-6,-2,-5,-2,-5,-6
2460323,-7,-27,-5,-2,1,1,-2,-11
2460323,-5,22,-8,-2,-2,-2,-2,4
2468318,-1,0,-9,2,0,1,-1,8
2468318,4,13,15,0,0,-1,0,-1
2483323,1,-6,-7,-1,-1,1,-6,0
2483323,-7,-4,-3,1,0,-1,-10,-4
2483982,-5,0,-2,-2,-1,-2,14,-14
2483982,4,-10,-5,0,-2,2,8,24
2496984,-3,-2,8,-2,-3,-2,-12,-1
2496984,-7,-7,-8,-5,-3,0,10,7
2505325,-3,10,8,-2,-1,-2,-6,-4
2505325,1,0,-4,3,4,0,-5,-4
2520324,-6,3,-2,-4,-5,-4,-3,-3
2520324,-2,-15,6,-2,-3,-1,-5,-3
2528025,2,4,1,2,-1,-2,-10,1
2528025,-7,-7,-10,0,0,-1,-1,-8
2542804,4,-7,-22,-3,-2,-2,1,-1
2542804,-1,10,0,-6,-1,-3,-4,-1
2543796,-2,-1,5,-2,-2,-3,-1,-1
2543796,4,2,-6,-4,-2,-1,-3,6
2557358,-1,-4,14,2,2,-1,-2,-3
2557358,-2,2,1,0,0,0,-2,-1
2564313,-5,0,-4,-1,-3,-1,-1,-26
2564313,15,-5,-8,-3,-1,-1,1,17
2579613,-3,-5,4,3,-3,-1,-5,-6
2579613,1,1,-5,-7,-2,2,2,3
2588355,-4,-3,1,-1,-2,0,-10,-5
2588355,-10,-2,5,1,0,-1,-15,1
2603352,18,6,-15,-1,0,-1,8,0
2603352,0,7,25,2,-1,-3,2,8
2603352,-6,-13,-15,-1,-2,-1,2,0
2603352,1,8,-4,-5,-4,-4,-11,-11
2617355,-1,4,5,1,0,-2,2,6
2617355,-3,-8,-3,-1,-2,-1,0,-3
2624315,4,9,10,1,-1,-1,-4,-2
2624315,-5,-18,4,0,-1,-2,6,-9
2639876,-4,21,8,-2,-1,0,-1,-3
2639876,-3,-25,-9,-1,-1,-2,1,-5
2648341,-5,-12,-6,-2,-2,-3,3,3
2648341,-5,-1,-5,-5,-2,-1,4,-3
2662821,-1,0,3,1,-2,-1,-2,2
2662821,-9,17,-2,-1,-2,-2,-5,-2
2663560,-7,-13,8,0,1,0,-3,0
2663560,-4,12,5,3,1,-1,5,-3
2685848,-4,8,32,2,-2,-2,-2,0
2685848,5,-8,-30,-3,-1,-1,1,-8
2686563,2,-3,-2,-2,-4,-1,-1,5
2686563,-4,9,-12,-3,-3,-2,8,-5
2699897,2,-14,-2,0,-1,0,-8,8
2699897,-5,-15,3,-2,-2,-2,-2,-6
2707894,1,6,-2,0,0,-1,-3,-1
2707894,5,0,4,2,0,-1,-1,0
2722603,-4,-1,-13,-5,-3,-1,1,1
2722603,4,2,1,-1,-1,-3,-4,3
2723564,1,-5,-13,-5,-1,0,7,-1
2723564,1,8,5,1,0,-1,-1,22
2736565,0,-7,-10,-3,-6,-2,0,-12
2736565,5,-8,-2,-1,-1,-1,-2,2
2745074,0,-5,5,0,-1,-1,-5,-10
2745074,3,16,-5,0,2,0,2,4
2759922,-13,-5,-9,-4,-1,-2,-1,-6
2759922,0,2,0,2,-1,0,1,-3
2767926,-4,-4,-19,1,0,-2,-2,7
2767926,14,-8,20,-6,-5,-2,0,-13
2782583,-12,11,-16,-1,0,-2,-5,-1
2782583,-7,-10,3,1,-1,-2,-3,-5
2783596,-2,-1,7,4,0,1,0,2
2783596,-3,-16,-9,1,-1,0,-1,-2
2798583,4,-2,-3,-7,-2,-1,-1,3
2798583,-8,23,8,-8,-5,-4,-1,1
2804810,2,-25,-17,-1,-1,-1,2,2
2804810,-4,3,2,2,0,0,-1,-9
2819849,8,-20,-1,-3,-2,-1,0,3
2819849,-3,7,5,-5,-3,-6,-4,-10
2827857,4,18,2,-4,-2,-1,-2,5
2827857,-3,-2,-13,1,1,-1,-4,-19
2842106,-10,8,1,8,4,3,5,6
2842106,9,-25,-8,-7,-4,-2,1,14
2850107,-4,6,3,-1,-3,-5,-2,-26
2850107,-2,-16,-6,-1,0,2,2,15
2857121,17,-3,-2,-12,-7,-6,-5,-29
2857121,-11,18,-1,4,2,2,0,1
2864121,-1,-15,6,4,4,-1,-1,7
2864121,3,16,3,3,2,2,2,-1
2879317,-19,-8,-3,-3,-4,-2,-3,5
2879317,6,8,15,1,-3,-1,-11,-1
2888254,-8,12,28,-2,-2,0,26,7
2888254,-2,-10,-10,-1,-1,-4,-5,-9
2902254,9,-4,-4,0,2,-1,2,3
2902254,-2,5,-5,-2,-4,-3,-2,-7
2910262,2,-9,4,0,-1,-2,-9,2
2910262,-10,0,0,-6,-2,-3,0,-1
2917125,-3,-5,1,0,0,-2,-4,-5
2917125,5,-1,-4,4,0,1,4,0
2925350,0,6,-13,-3,-1,-1,-5,4
2925350,-5,-15,2,-3,-2,-2,-1,-8
2940127,11,18,0,-1,-3,-1,-10,10
2940127,-8,-10,-6,0,2,-1,1,2
2947640,-16,-8,-4,-5,-1,-1,-7,-8
2947640,13,1,-5,-6,-3,-1,11,1
2961573,-21,9,3,3,-1,-3,-12,-14
2961573,3,-6,-4,-1,-2,-2,-1,-5
2970358,-4,-7,-5,-3,-4,-2,-13,-15
2970358,0,4,-1,1,-2,2,-2,33
2976579,-2,-3,0,-2,-3,-2,10,-10
2976579,0,2,-6,-5,-6,-7,-19,-28
2985359,13,0,-8,-1,4,4,3,36
2985359,-18,-2,3,8,4,-4,-41,-46
3000360,18,-2,-3,-16,-12,0,43,58
3000360,-10,-2,6,-1,1,1,-2,-12
3007587,36,-2,-32,-5,-5,-6,-8,-3
3007587,-25,3,1,0,0,2,17,22
3021574,2,2,-2,9,6,0,-16,-4
3021574,-2,-19,11,0,-2,0,4,0
3029576,-21,1,-13,-4,-4,-2,10,22
3029576,-2,4,16,-10,-3,-3,-12,-7
3046579,-1,-10,-21,-2,1,-2,-5,-16
3046579,1,2,15,2,2,2,5,12
3047080,-4,-13,19,2,-1,-1,-6,-13
3047080,-1,-1,-5,-5,-4,-2,5,2
3060297,-8,-3,9,1,1,1,-4,-2
3060297,-1,8,-12,-1,1,2,6,-3
3068297,2,8,12,0,2,0,-3,-1
3068297,-2,-11,-11,-3,-4,-4,5,-14
3082299,3,0,10,0,0,1,-3,-4
3082299,3,-1,-13,-3,-3,-2,-2,10
3090298,1,-2,-3,-3,-3,-2,-2,-10
3090298,7,5,-3,-1,-1,-2,-1,3
3105299,-17,-3,-6,1,-2,-2,-11,-4
3105299,-3,-5,1,0,-2,-2,12,-12
3106300,-5,4,1,0,-1,0,-3,8
3106300,10,2,-3,-2,-1,-3,2,-16
3120300,-10,-5,6,1,-1,0,6,27
3120300,1,6,-8,-1,-1,0,-3,-5
3127517,1,10,1,-5,-2,-4,-1,-8
3127517,-2,-10,-6,-1,-1,-1,-6,-8
3141813,6,-8,-1,-1,0,-4,-3,-12
3141813,1,0,-2,-2,2,1,14,15
3149814,-2,5,-1,3,3,-1,1,-5
3149814,2,-8,3,-3,-5,-2,-2,11
3165320,-1,4,-3,-2,-2,0,-5,-10
3165320,-8,-6,0,-1,-1,-2,-8,-21
3166320,11,4,-25,-4,-4,-2,6,-1
3166320,-13,6,22,3,-1,1,-3,18
3179551,18,-18,-25,-4,-1,-2,-20,-10
3179551,1,5,7,1,-1,-2,20,8
3188321,-3,3,-2,-1,1,-2,-11,-13
3188321,4,-17,-10,-10,-9,-4,17,-8
3202322,-3,0,3,2,0,-2,-12,5
3202322,-7,6,2,-2,-3,1,-9,-3
3210322,-6,-8,-2,0,0,-2,1,-6
3210322,2,9,1,4,4,1,-16,4
3224324,8,2,10,1,1,2,23,-27
3224324,2,-9,-24,-6,-2,-2,0,14
3225325,-1,9,12,2,-3,-1,-1,-1
3225325,-6,-11,-8,-3,-2,-3,-10,2
3239326,2,8,0,-3,-3,-2,7,-3
3239326,10,0,-2,1,-1,-1,-14,2
3247834,-15,0,13,-2,-2,-1,-2,10
3247834,0,-10,-28,0,-1,-2,1,-10
3261773,7,13,14,0,0,0,-2,2
3261773,-9,4,-3,0,-4,-3,-5,-2
3269776,0,-9,0,-1,-1,-1,3,8
3269776,17,1,-3,2,2,1,-1,6
3284844,-13,5,-4,-2,-2,-4,-18,1
3284844,5,-12,-8,1,1,1,36,5
3285561,2,-10,-6,-7,-6,-2,-7,-10
3285561,-1,5,11,3,2,-2,4,-4
3299598,1,-2,0,0,0,1,-2,14
3299598,-4,11,14,-3,-1,-3,-17,-9
3307569,3,3,16,0,0,-4,0,-2
3307569,-2,1,-10,1,0,0,11,-3
3321570,-3,-4,-1,-4,-4,-2,-15,4
3321570,-5,-11,-2,-1,1,-2,1,-1
3329564,-7,-5,1,-3,-2,-1,0,1
3329564,-12,5,-2,-3,-2,-3,-12,-14
3345013,18,4,4,1,0,-1,4,2
3345013,-2,-1,-2,-2,0,-1,-5,3
3346015,-2,-4,-9,0,-1,0,-7,-9
3346015,2,7,0,-1,-1,0,-8,-1
3359802,-14,-1,-5,-1,-1,0,33,-6
3359802,15,-10,-3,-5,-5,-5,-11,1
3367838,-19,-9,-16,-2,1,1,-1,-2
3367838,-6,-18,6,1,-1,-2,-4,-5
3381803,-9,-4,-4,0,-1,-1,-3,-7
3381803,1,6,-11,1,1,0,-5,34
3390018,5,-9,-4,0,0,-2,-15,-15
3390018,7,12,7,-1,-3,1,23,13
3405033,-10,-13,0,0,-2,-1,-8,-3
3405033,0,11,7,-1,-2,0,-7,-13
3406031,3,-5,-9,-1,-2,0,3,3
3406031,2,2,-3,-2,0,1,-13,-3
3420035,-15,0,-1,0,0,-2,13,-6
3420035,-14,-1,-1,-1,0,0,1,-10
3427811,7,9,4,-1,-1,-1,2,13
3427811,-11,1,-3,-2,-2,-3,-12,-7
3442260,12,-5,-1,-2,-1,0,8,1
3442260,-5,-3,-2,1,-1,0,21,1
3450258,-5,9,3,0,0,-3,2,-2
3450258,-7,-10,2,-1,-1,-2,7,3
3464930,0,-8,-8,-2,-1,0,-16,-2
3464930,0,-17,13,-2,-1,1,-7,-4
3465854,-1,6,-19,-3,-3,-3,-1,3
3465854,4,-6,3,0,0,0,2,-16
3479749,-3,-3,-6,-2,-2,-2,-4,12
3479749,6,-4,-1,1,1,-1,-8,-6
3487975,-12,-2,-8,-4,-3,-2,-2,-2
3487975,10,14,7,-1,-1,-1,-5,-11
3501977,8,-7,-4,-1,0,1,1,4
3501977,-14,-4,-3,0,-1,-3,-5,-10
3509966,1,1,2,-1,-3,-1,6,-2
3509966,-6,3,-5,-1,1,-2,-9,5
3525037,6,0,5,0,-3,-2,-4,-3
3525037,6,5,-2,1,0,2,24,-7
3525752,1,-5,7,1,1,0,3,5
3525752,-4,2,-2,-3,-1,-2,0,3
3539753,-10,15,-4,-5,-4,-2,-10,-2
3539753,-10,-30,-7,-4,-5,-1,14,-15
3554980,8,5,-6,2,-1,0,0,-7
3554980,-7,-10,-28,-3,-3,-3,5,5
3562248,2,10,0,-1,0,-2,-5,-17
3562248,-8,-5,-9,-2,-1,0,-13,10
3570024,-3,5,10,-1,-3,-1,-1,-8
3570024,21,-7,-6,-3,-4,-3,0,7
3585248,-25,-6,-3,-2,-1,-4,-3,-11
3585248,1,9,3,1,-1,-2,-11,-3
3586256,-3,-15,0,-4,0,0,-11,-5
3586256,-11,6,3,-2,-2,-2,8,2
3600001,-4,-7,2,-1,-1,-1,5,-3
3600001,4,7,0,1,-2,-1,-7,1
3608137,1,-4,0,0,0,-1,-1,9
3608137,-8,-1,-2,-3,-4,-2,-7,-10
3622254,12,-5,1,-2,-2,-2,3,7
3622254,-4,2,-2,-4,-4,-3,-2,-3
3629992,2,-3,0,-1,-2,-2,2,-2
3629992,-1,2,8,-1,0,1,-1,3
3645249,-7,3,14,2,0,0,0,-17
3645249,10,-2,-19,-4,-3,-4,-14,2
3646214,4,4,15,-2,-2,1,-10,-4
3646214,-6,-5,4,0,-1,-3,9,-4
3660022,2,8,5,3,-1,-1,-4,11
3660022,-3,5,-2,-3,-2,-2,-2,-9
3668246,2,-16,0,0,-2,-3,-5,4
3668246,-4,-7,0,-1,-3,0,-3,-6
3682207,-18,-8,-6,-8,-3,-3,-1,5
3682207,12,8,4,0,0,0,-4,-3
3690245,-10,4,-6,-2,0,-1,5,-3
3690245,-1,-6,0,1,0,2,4,7
3705244,11,-4,-4,-2,-2,-2,-9,-5
3705244,-9,7,1,1,1,0,20,6
3706250,8,-10,-6,-5,-6,-4,7,-8
3706250,2,-2,1,2,2,-1,-3,-2
3720250,-3,1,-4,-2,-4,-1,-3,-6
3720250,-2,-4,-3,-1,-1,-2,-7,5
3728246,-5,-1,0,-1,0,-1,-3,0
3728246,-3,1,2,-1,2,-1,-1,5
3741969,6,6,-11,0,1,-1,0,1
3741969,-13,-4,22,-1,-4,-2,-9,-6
3750276,0,-9,-22,-3,0,-1,5,3
3750276,4,10,-12,-3,-4,-3,-9,0
3764263,3,-5,15,3,2,-1,2,-2
3764263,1,1,0,-4,-1,-2,-4,-4
3773260,-6,-4,2,-2,-2,-3,-4,-2
3773260,7,8,-2,-3,-1,-1,1,-2
3779489,-16,-2,-3,0,0,1,0,0
3779489,-4,-9,-10,0,-1,-1,-5,0
3788259,7,0,5,0,-2,-3,-4,4
3788259,-1,4,0,-1,-1,-1,2,-2
3802260,5,-18,-3,-1,-2,0,-17,-12
3802260,-1,3,-3,-2,-1,-1,9,7
3810261,-17,1,-2,0,1,-1,-2,-7
3810261,2,-3,2,-4,-3,-2,-5,-7
3824303,3,0,-4,-1,1,-1,1,-2
3824303,2,-1,0,0,-2,1,-5,-6
3832264,-19,11,-1,-3,-2,-1,1,3
3832264,15,-2,5,1,-1,-2,2,3
3839268,5,2,2,-1,-1,-2,7,7
3839268,-3,-4,-6,-4,-1,-2,-6,-9
3847784,8,5,5,1,-1,-1,2,0
3847784,-15,-12,-16,-6,-3,-1,-3,-5
3861307,-2,3,4,-3,-3,-1,0,1
3861307,8,8,-2,2,0,-1,-3,1
3869308,1,-31,-9,-1,-1,-1,0,-8
3869308,-3,7,-5,-8,-6,-4,-4,-1
3884344,8,0,-3,-1,-3,-2,-1,-4
3884344,-1,-1,-6,-5,-3,-1,-4,-3
3892303,-2,17,5,3,1,1,-2,-7
3892303,-13,-6,16,5,1,0,1,4
3899344,7,-10,-19,-11,-5,-2,2,-1
3899344,-1,-4,-7,-6,-3,-2,-5,2
3907310,-5,12,-6,3,1,1,2,7
3907310,16,-2,22,21,12,2,-2,2
3921311,-6,-20,-36,-26,-16,-5,-3,-4
3921311,-3,-4,-5,-3,-1,-4,-2,-6
3929311,21,0,27,-3,-2,-2,-3,8
3929311,-14,12,-6,-1,0,-1,1,3
3944868,-8,5,26,22,8,2,0,13
3944868,8,-11,-8,-9,-7,-2,-3,1
3952828,-3,-5,-14,-4,-3,-3,-3,-12
3952828,2,-10,-2,-3,-3,-1,-15,-8
3968385,-2,15,7,4,2,0,15,1
3968385,-22,-6,5,-1,-1,-2,0,6
3969345,2,-3,6,1,0,0,3,5
3969345,-9,-9,-11,-6,-4,-3,-9,-21
3981345,10,-6,-8,-1,0,-2,-7,11
3981345,0,2,6,5,2,0,-21,-13
3989351,1,3,-8,-2,-1,2,82,-2
3989351,-12,-8,-10,-6,-4,-3,-3,5
4004387,-9,4,6,-1,-1,-2,-1,-11
4004387,1,13,5,5,4,0,3,0
4012347,5,9,-6,-6,-4,-4,-28,-1
4012347,-11,-25,-4,-7,-4,-1,3,-6
4028389,-7,-4,5,0,-2,-4,4,-16
4028389,-3,-7,-4,-2,-2,-1,-19,5
4029348,2,8,0,3,1,2,14,14
4029348,9,12,2,4,0,0,2,-5
4041873,1,-7,-7,-5,-2,0,-8,-10
4041873,1,3,1,0,-1,1,3,11
4049869,2,-14,5,-1,-2,-5,-18,4
4049869,-8,6,-17,-3,-2,-6,-14,-27
4064389,3,1,-3,1,0,3,25,0
4064389,11,-3,-3,-2,-5,-1,30,9
4072391,-5,-4,8,-4,-3,-2,-27,-11
4072391,-6,-10,-20,-3,-1,-1,2,10
4088432,6,4,1,-1,2,-3,-24,-17
4088432,-4,17,4,1,-1,-1,2,-8
4089391,-6,-4,-5,-1,1,-2,-12,-1
4089391,0,-4,8,-3,-5,-1,2,-7
4101397,-2,-3,11,3,0,-2,3,4
4101397,-3,-3,-21,0,-1,1,-2,8
4109398,-5,5,-4,-2,-3,-2,-6,-6
4109398,12,-2,0,-6,-4,-2,1,4
4124433,-20,-11,-19,3,1,0,0,0
4124433,-3,10,30,0,1,-3,-3,4
4132393,-2,6,1,-5,-5,-4,-12,-12
4132393,0,-6,-1,0,-1,1,8,8
4148950,-1,-2,4,1,0,0,-5,-6
4148950,-7,-15,-8,1,2,1,2,9
4149914,-12,3,-14,0,0,0,-1,4
4149914,24,9,1,-1,-1,0,1,-8
4161439,-1,-3,-3,-1,-1,-1,0,21
4161439,8,-1,-6,-2,-2,-2,-5,-18
4170435,-1,-11,1,0,-2,0,-5,5
4170435,-11,0,4,-3,-3,-1,7,4
4184476,4,0,-4,-3,-1,-3,-7,-12
4184476,-11,3,-4,-2,0,0,10,-7
4193436,3,-4,0,-1,-1,-1,-6,0
4193436,-1,-2,5,3,2,-2,-4,-5
4206442,9,15,0,-4,-3,-1,1,5
4206442,-13,-10,3,1,-1,-3,-9,-6
4215437,3,7,-1,3,2,1,4,0
4215437,-23,-27,-5,-4,-4,-3,-3,2
4221443,16,11,2,1,-2,-4,-12,5
4221443,-2,-4,-1,-1,0,2,9,-24
4230439,-8,-3,-6,0,-1,0,23,5
4230439,8,3,0,-1,-2,-1,-1,10
4244959,-9,7,3,-1,-2,-1,-8,-6
4244959,-1,-25,-17,-2,-1,-2,-12,5
4253966,-7,10,5,-3,-3,-3,-11,-7
4253966,0,7,5,2,2,0,7,4
4266481,-8,-4,-3,-1,-3,-1,-10,0
4266481,18,4,6,-1,0,-1,-6,-2
4275480,-33,-13,-7,-5,0,-2,-5,-9
4275480,18,5,16,0,-1,0,-1,6
4281481,-13,-11,-4,-2,-2,-3,0,-5
4281481,11,9,0,-3,-3,-2,5,6
4290481,12,-14,-1,1,-1,-2,-8,1
4290481,-7,7,1,1,0,0,3,-3
4304522,-8,-7,-7,-2,-2,-2,-18,0
4304522,4,3,4,1,1,1,28,10
4313483,-4,-2,-2,-6,-5,-2,1,-13
4313483,-5,0,-8,-1,-1,-1,-8,3
4326488,-2,-8,0,1,-2,1,-2,-11
4326488,-13,-5,-5,0,-2,-2,-6,7
4335485,14,6,2,0,-1,-2,-6,-16
4335485,-6,1,-11,-3,-2,0,-4,13
4342004,2,0,-5,-4,-1,0,-1,1
4342004,-16,3,4,0,-1,-3,6,-20
4351006,22,-18,-10,-1,-1,3,16,23
4351006,4,3,8,-2,-4,-3,-5,-13
4364562,2,2,0,-1,-4,-2,0,2
4364562,-5,-8,-14,-1,0,-2,-11,-2
4373527,2,6,6,0,-1,0,-5,-1
4373527,-1,1,4,-3,1,-1,-1,-6
4386532,3,-9,-8,0,1,0,13,2
4386532,1,-4,10,-4,-4,-1,-10,-5
4395527,-2,3,2,1,1,1,-9,3
4395527,3,-3,-7,-1,-1,1,13,1
4401533,-4,6,4,-2,-1,-2,7,-9
4401533,-16,-4,1,-2,-1,-1,-8,-1
4410528,2,3,5,0,-1,-3,-8,-13
4410528,-11,-8,-4,1,-1,-2,-5,5
4424600,15,5,1,-3,0,-1,6,0
4424600,-2,-4,-4,-1,-2,-2,4,6
4433566,7,5,3,-3,-3,-2,-1,5
4433566,-5,-10,-6,1,-1,-3,-6,-8
4447050,-4,3,4,-1,-1,-2,-13,0
4447050,7,-7,-17,0,0,2,25,8
4456052,-8,15,2,-2,-2,-2,0,-3
4456052,1,-9,-5,-1,-2,-2,-1,2
4461561,-9,-14,-5,-4,-1,-1,-8,0
4461561,-2,8,7,-1,-2,-4,-10,-8
4470560,2,-5,-7,-1,-3,-2,0,1
4470560,-11,-3,-23,-4,0,-2,-2,-11
4484567,-3,3,13,1,0,2,5,8
4484567,2,3,-13,-5,0,0,-8,-5
4493562,-4,-8,-6,1,-2,-1,3,6
4493562,-5,18,13,0,-2,-2,-7,-8
4506568,-5,-13,-16,-4,-2,1,1,-1
4506568,12,-5,1,-2,-3,-2,-8,-7
4515564,-21,1,0,0,0,-1,-3,10
4515564,0,4,9,-2,-2,-2,-7,-1
4521569,1,-3,-6,-2,0,-1,30,4
4521569,0,8,7,0,1,-1,-4,6
4530564,2,-9,-4,-4,-3,-1,-7,-15
4530564,9,2,0,0,0,0,4,11
4544596,-1,0,-2,-1,-4,-3,8,2
4544596,-2,8,11,-1,-3,-1,-7,0
4553585,0,-29,-19,0,1,1,6,-8
4553585,-5,-4,-6,0,1,1,-1,-2
4566809,7,6,-1,1,-3,-3,-20,-1
4566809,-3,-12,6,0,1,-2,22,-6
4575806,12,23,6,-4,-2,-2,-5,0
4575806,-22,-27,-7,-4,-3,-2,-6,-3
4581805,-5,3,10,-2,-2,-2,-9,-18
4581805,-5,2,3,3,-1,-2,-8,1
4590807,-3,-6,-3,0,-1,-2,-1,-2
4590807,5,0,-3,-5,0,-3,0,-1
4604821,-4,2,3,0,-2,-2,2,-3
4604821,-3,-1,-4,-1,0,0,-7,6
4613609,-2,-1,1,-4,-1,-1,-4,-1
4613609,10,3,-5,-4,-4,-3,-5,-7
4626823,-9,-1,-2,1,1,1,8,7
4626823,6,-12,-1,-3,-1,0,-2,-6
4636611,4,4,-5,-2,-1,0,-2,10
4636611,-7,-10,1,-1,-2,-1,-6,3
4641828,10,-6,0,0,1,-2,-9,-3
4641828,-3,2,-6,-2,-1,-4,-5,-4
4650835,-1,0,15,-1,0,-3,2,-5
4650835,18,9,-2,2,1,0,1,4
4664792,-9,-17,-7,-2,-2,-3,5,3
4664792,0,12,2,-1,-3,-2,-8,7
4673552,-8,-16,-4,1,0,0,2,-7
4673552,10,10,6,0,-3,-1,0,-1
4686840,2,5,-1,0,-1,-1,-1,-3
4686840,0,0,-7,-2,-1,-1,-2,-3
4696555,-7,-1,-1,-1,-1,-1,-7,0
4696555,1,4,7,1,-1,0,6,-2
4701562,-17,-33,-13,-9,-2,-5,-6,-1
4701562,-5,2,-7,-4,-1,0,-2,2
4711556,9,-3,-6,-3,-2,-3,-7,-6
4711556,0,-3,0,3,-1,1,-25,0
4724880,-13,21,3,-1,0,2,26,8
4724880,2,-11,0,0,-1,1,-7,-7
4733557,-11,-5,-1,0,-1,-2,-2,7
4733557,19,2,-3,-2,1,0,7,-4
4763871,10,12,4,-2,-2,0,-21,-3
4763871,-9,-6,-2,1,1,-1,-2,-1
4765872,-5,-6,12,0,0,1,6,-6
4765872,-13,-1,-4,-2,-2,-2,-1,1
4766871,8,11,11,4,3,1,-4,-3
4766871,0,-3,-2,0,-1,0,3,7
4770871,0,-13,-4,-2,-3,-2,-3,-9
4770871,-5,-3,-2,-2,-3,-1,8,-3
4785204,0,-2,-12,-3,-2,-2,-7,8
4785204,2,13,16,2,-1,0,5,-8
4793872,11,-1,-2,0,1,-2,-3,-3
4793872,-6,-1,1,-2,0,-2,4,7
4806914,5,8,-6,0,-2,-1,2,3
4806914,-4,-2,0,-6,-3,-4,-10,-8
4816874,4,-19,-17,-3,-3,-2,-1,2
4816874,9,6,5,1,-1,-1,3,-2
4821880,1,0,5,-3,-1,-1,-6,-5
4821880,7,6,-1,-2,0,-2,0,6
4830875,-8,3,-1,-2,0,0,0,-6
4830875,-10,1,-16,-3,1,-2,-2,0
4845123,-1,-19,11,2,0,-3,4,-3
4845123,-2,-1,-4,1,-1,-2,-8,0
4854152,-7,8,-6,-2,-3,-2,0,-6
4854152,-13,-9,-5,-3,-3,-2,-10,-4
4867208,7,9,0,0,0,0,5,1
4867208,2,-3,-6,3,1,0,2,2
4876108,4,-3,4,-1,-3,-2,-3,-1
4876108,-13,4,-2,-1,-3,-3,0,1
4882158,-9,-4,2,-1,-1,0,-7,-10
4882158,10,-13,-2,0,0,-1,-1,2
4892172,1,12,-2,-2,-1,0,-2,-4
4892172,3,2,7,4,4,1,4,9
4905208,-3,-2,-8,5,2,-3,-2,-1
4905208,-14,-20,-18,-18,-9,-2,-2,-8
4913109,8,6,1,-2,0,-4,-2,7
4913109,11,28,26,10,5,1,-1,-10
4927255,-11,-16,-9,-6,-5,0,3,-5
4927255,-7,-12,24,4,0,-1,-3,-9
4936112,7,0,-47,-12,-5,-3,-1,-18
4936112,-24,-7,21,-10,-8,-4,0,4
4951138,32,14,-4,14,10,2,-2,11
4951138,3,-18,7,-11,-7,-6,-8,-11
4952638,-9,-8,2,3,1,4,7,7
4952638,-26,16,16,6,5,0,3,6
4965198,2,-20,-34,-19,-9,-3,-2,-2
4965198,-8,23,-2,7,4,0,4,5
4974159,-15,7,-1,1,-1,-1,-18,-8
4974159,24,-25,4,-1,-1,-1,9,1
4987168,-15,11,16,3,0,-3,-5,-20
4987168,1,2,-13,-1,-2,-2,-1,8
4996169,8,6,6,0,0,-2,5,20
4996169,1,-17,-13,0,-1,0,-3,-7
5011202,-4,1,0,-6,-1,-1,-3,-2
5011202,1,6,-12,-3,-2,-1,-1,-8
5013146,-8,-3,11,6,2,0,-2,0
5013146,8,3,-13,-4,-4,-5,-18,-1
5024148,-10,-12,-1,-4,-2,2,38,6
5024148,1,3,2,1,0,-2,-10,-4
5033204,0,-1,8,1,-1,-2,10,2
5033204,-4,-12,-18,-7,-4,-2,-15,-3
5046865,3,9,2,-2,-1,-3,-15,-20
5046865,2,6,-1,5,3,3,14,-9
5056901,2,-3,-3,-4,-6,-4,-1,21
5056901,0,2,-12,-7,-2,2,12,-7
5070599,2,-5,6,2,-2,-3,-13,4
5070599,4,0,-3,-3,1,0,3,14
5072382,-1,9,20,4,0,2,19,37
5072382,-10,-17,2,3,1,-1,16,-6
5084651,15,-7,-1,-4,-1,-1,-7,-6
5084651,-28,-1,-17,-4,-2,-5,-21,-18
5093419,25,10,26,1,-1,-2,-15,-4
5093419,21,-11,-37,-10,-4,-1,5,24
5107386,-21,8,14,-3,-2,0,-6,-5
5107386,11,-6,8,3,-1,-2,6,26
5115386,-11,1,-11,-2,-1,0,-3,-26
5115386,0,-11,-7,-2,-3,-3,-5,-12
5130389,2,3,0,0,0,-2,-7,6
5130389,2,7,4,1,0,-1,2,-3
5132387,-6,-16,-7,-7,-2,-1,3,-7
5132387,-10,-6,0,1,-1,-2,-4,-9
5145312,1,7,-3,2,1,1,-2,5
5145312,-3,-1,3,-2,-1,0,3,0
5153680,-8,2,-5,1,-1,-1,-2,-10
5153680,-4,2,0,-3,-3,-4,1,-3
5166697,0,-9,2,-1,-5,-2,-2,-4
5166697,-6,2,-2,2,1,-2,-6,-15
5176690,4,3,-8,-1,-2,2,0,7
5176690,-7,-10,-1,-1,-1,-4,-23,-18
5190980,-6,9,9,-3,-3,0,44,12
5190980,-3,-7,-4,-3,-2,-1,-5,9
5192691,4,-3,-10,-1,0,-1,-4,-16
5192691,-6,9,28,0,0,-2,0,-3
5204994,2,-4,-23,0,-1,-2,-16,-3
5204994,-4,-9,-7,-4,-2,0,1,-2
5213694,-8,-3,2,-2,0,-1,0,-7
5213694,7,12,3,0,-1,0,1,3
5226696,-5,-19,5,-3,-4,-4,-9,3
5226696,5,4,-6,-3,-4,-3,0,-2
5236694,-5,0,-2,0,-1,-2,-3,0
5236694,-7,-5,-7,-2,-1,-1,-12,-5
5250221,13,17,1,-2,-2,-3,-11,-33
5250221,9,-12,-4,0,-2,1,12,44
5256990,-36,-29,-4,-5,-2,-1,14,-12
5256990,-6,5,-8,-3,-4,0,34,9
5264997,-5,0,-6,0,0,-2,-10,4
5264997,13,18,7,0,-3,-4,-11,-20
5273997,1,-18,-11,-2,-1,0,-4,5
5273997,14,-6,8,3,1,-2,-8,2
5287218,-34,-4,-26,-3,0,-2,-3,-6
5287218,3,7,0,-2,1,-1,3,2
5296998,-1,-9,5,4,1,0,-5,1
5296998,3,4,-10,-2,-3,0,-2,-9
5311243,14,-3,8,0,-3,0,-8,10
5311243,-7,2,-2,-2,-1,-2,-5,-6
5316999,-10,-6,-4,-4,-2,-5,-4,-5
5316999,14,-4,2,-1,0,0,-3,1
5325239,11,-2,-1,1,0,-1,4,0
5325239,-15,1,-1,-2,-2,1,-5,-5
5334000,3,14,0,1,-2,-2,-2,4
5334000,-5,-11,-5,-2,-2,-2,1,-3
5347026,-2,-9,2,-2,-3,-1,-13,0
5347026,6,-2,-7,-3,-4,-4,14,-4
5357028,-1,17,-2,-2,-2,-2,-2,-1
5357028,-6,-19,-2,1,2,0,-2,1
5370036,-5,14,1,-3,1,0,-4,3
5370036,-9,-15,2,-4,-2,-3,-11,-12
5378035,-1,7,1,1,0,0,8,0
5378035,-2,15,1,1,-2,0,-7,-1
5385035,3,-1,0,-1,-3,-1,0,6
5385035,-10,-2,0,2,1,1,-5,-6
5394160,19,-1,-1,-2,-1,-2,-11,14
5394160,2,0,-2,-4,-2,-2,3,-3
5407163,-5,0,28,1,0,2,-1,0
5407163,-1,-3,-19,-1,0,0,-4,-1
5416037,1,-1,3,0,-1,0,-4,-3
5416037,-6,10,11,0,0,2,-4,1
5429250,5,-14,6,-1,-3,-2,-4,3
5429250,2,4,-4,-3,-3,-5,7,-4
5439148,-3,-15,-1,-1,-1,-1,-7,-6
5439148,8,17,-3,-1,-2,-2,0,3
5445018,-11,-3,-9,0,-2,0,-2,-3
5445018,3,-11,6,-1,-1,-1,14,8
5461476,-6,9,-7,0,-1,-1,0,-2
5461476,-2,-2,3,-3,0,-4,-6,-16
5466698,-15,6,-8,1,-2,-2,-8,11
5466698,4,-23,-3,-2,-2,0,11,-1
5476477,7,10,9,-4,-4,0,2,3
5476477,3,-5,-8,-2,-2,-1,0,-2
5489747,5,4,-11,-1,-3,-3,-10,-9
5489747,0,4,5,1,0,0,8,-1
5498478,-8,-13,-14,1,-1,-1,19,3
5498478,3,2,-11,-1,-3,-2,1,-1
5504747,2,4,14,-2,-1,-3,3,0
5504747,-12,-6,-6,0,-2,0,-12,-3
5513479,3,-5,6,0,0,-1,-9,-10
5513479,-10,-3,-7,-2,0,-1,4,8
5526692,1,1,-1,0,1,0,7,-2
5526692,-2,9,10,0,0,0,-8,-2
5536480,2,13,-2,-3,-3,-1,0,-1
5536480,-4,-17,-1,0,0,0,-6,0
5549913,13,-7,-6,-3,0,2,12,7
5549913,-7,-3,14,3,0,-2,-7,0
5558704,6,-1,2,-7,-4,-2,-6,-7
5558704,-11,-2,-11,0,-3,0,0,-6
5564213,-5,-13,-13,-2,-2,-3,1,-6
5564213,2,-10,-6,-3,-2,-2,-4,4
5573213,-2,18,22,3,0,-2,-14,-4
5573213,-12,5,12,-1,1,0,15,-15
5586212,30,5,-12,-1,-1,-3,-7,12
5586212,7,-4,-8,-3,-2,0,-5,-7
5596213,-14,-23,-9,-4,-3,-4,-5,-14
5596213,7,0,-5,-7,-4,-2,-2,16
5609219,-14,1,1,2,3,-1,5,-11
5609219,7,8,2,3,0,-1,-5,7
5618214,15,7,-6,-2,0,-2,-3,-12
5618214,-6,-15,-6,1,0,-2,-4,5
5624215,-7,-7,0,-2,0,-1,-3,-4
5624215,-10,3,-4,-3,-4,-4,-19,-5
5633215,2,-1,-2,2,0,0,26,10
5633215,-4,-4,7,0,-3,-4,-7,1
5646726,-4,-1,1,-2,0,-3,-1,-3
5646726,-1,0,-5,-1,0,1,-5,-8
5656728,-9,1,4,0,-1,0,-6,6
5656728,9,9,-23,0,-3,0,16,3
5669231,-6,4,0,0,-3,-1,2,4
5669231,-10,-13,1,-1,-3,-2,5,-5
5678232,7,-1,-6,-1,-1,-1,-13,3
5678232,9,1,8,-1,1,0,-5,2
5684233,-14,-1,-7,0,-2,0,-5,-12
5684233,-9,-7,-5,-6,-4,-2,15,7
5693233,-14,-11,-7,0,-1,1,6,1
5693233,6,-3,4,-2,-1,-3,-9,-7
5706431,5,-3,-4,-1,1,-1,-2,5
5706431,1,14,6,3,1,0,-7,-5
5716234,0,-10,-6,-2,-4,-3,-5,-21
5716234,-4,4,2,-2,-1,0,2,12
5738480,-5,-4,9,0,-2,-1,-13,-1
5738480,6,2,-29,-2,-1,-1,-6,-2
5740235,-11,-11,9,2,0,-1,21,-4
5740235,1,7,8,-1,-2,0,-7,-11
5745125,4,-4,-4,-1,-3,-1,4,2
5745125,2,-4,8,-2,-4,-4,-2,2
5754129,8,16,-5,-3,-3,-1,-9,5
5754129,-22,-14,2,-1,-1,-2,-9,-5
5766137,-8,3,-3,-2,0,-1,8,-2
5766137,11,-6,6,-1,-2,-1,-2,2
5776221,2,-6,-1,2,1,-1,-6,-16
5776221,9,6,-3,-4,0,-3,-2,6
5790221,-10,-20,-6,-2,-3,-2,-4,0
5790221,-1,15,4,-1,0,0,-2,-21
5798139,12,4,7,0,-1,2,-2,14
5798139,-3,-3,-3,3,-1,-2,-14,-21
5805218,6,3,-2,-2,-2,0,7,15
5805218,-9,2,3,0,1,0,-3,1
5814142,-6,-10,-7,-4,-2,-1,-9,-14
5814142,-6,7,5,-2,-2,-3,3,10
5826425,6,-8,4,-3,-1,-1,-13,-8
5826425,-4,-6,-1,-1,0,-1,13,2
5837141,-1,6,3,-3,-1,-1,-3,6
5837141,-26,-7,-6,-2,-2,-1,1,-2
5849962,-1,-6,-4,-3,-2,-3,0,-14
5849962,2,4,4,0,-1,-1,0,10
5859142,-8,-13,-8,-2,-3,-2,0,5
5859142,8,4,-1,-5,-1,-1,2,-6
5873154,0,10,2,1,1,-1,3,12
5873154,-14,-17,-6,-1,-1,-1,-2,-3
5875148,12,7,-2,0,0,-3,-2,1
5875148,-7,-3,-7,-3,-1,-1,-3,-11
5887149,7,2,4,0,1,0,2,5
5887149,-8,-1,-5,-4,-4,-4,1,-5
5896150,-6,-10,-7,-2,-2,-1,-3,2
5896150,8,-6,6,1,-1,-1,1,4
5910151,-5,7,0,-2,0,-1,1,-7
5910151,1,7,2,-2,-4,0,-6,-8
5918212,-4,-11,-1,-4,0,1,0,24
5918212,-2,-4,-6,-4,-1,-1,0,-25
5933153,14,5,4,2,-2,-2,2,5
5933153,1,1,1,9,5,-3,-5,-8
5935153,-8,7,3,-2,-3,-1,1,-11
5935153,2,-5,-14,-9,-6,-3,-1,22
5946949,7,0,17,4,2,0,-3,-5
5946949,-10,15,-5,6,4,0,-2,-12
5956951,20,-2,5,-6,-4,-3,-2,0
5956951,-54,-7,-16,3,1,-1,-3,0
5970217,8,-4,-17,-2,-1,1,11,8
5970217,35,-6,13,-4,-3,1,-5,-8
5978957,-14,15,14,6,2,-1,1,-10
5978957,-1,-10,9,0,-3,0,-2,-3
5994212,4,-1,-12,-6,-7,-4,-7,7
5994212,-20,-1,3,-2,0,1,-2,8
5995958,13,0,-6,-2,-2,-1,2,2
5995958,14,-8,13,3,1,0,-3,-2
6007243,-19,5,-3,3,1,-2,-1,-9
6007243,-2,-14,-6,-3,-4,-2,3,8
6016960,-13,4,-2,-3,-1,-1,-7,-6
6016960,9,14,-2,2,-1,-1,-3,-1
6029961,-4,-17,-2,-6,-5,0,-2,-3
6029961,-3,-2,-7,-6,-4,-3,-1,-1
6038961,-13,-2,-6,1,1,0,-4,1
6038961,9,-4,1,1,1,-2,-2,-1
6053759,-6,3,-3,-2,-2,-1,1,-14
6053759,10,-2,1,-4,-4,-2,-21,10
6055756,-13,4,-5,0,-1,0,32,-8
6055756,16,-9,0,-1,-1,1,2,-1
6066843,-8,-3,1,-1,-1,-3,-8,-2
6066843,-6,5,-5,-7,-3,-3,-5,-20
6076552,0,-8,-6,2,1,0,-22,15
6076552,2,2,-2,-3,-2,-3,6,-65
6089559,-2,-4,0,-2,-2,-1,-8,26
6089559,-14,4,-1,5,1,0,3,-13
6098553,27,-2,-7,-4,-5,-2,28,34
6098553,12,6,6,1,1,-2,-25,-21
6113555,-39,-8,2,-5,1,-1,23,10
6113555,13,-2,2,-2,0,-1,5,15
6115554,-9,8,1,1,-3,-4,-20,-24
6115554,12,-9,-4,-2,-1,1,4,17
6126561,-5,3,9,0,0,-1,-5,-15
6126561,4,5,1,0,-1,0,-2,-1
6143555,-28,1,7,0,0,-2,-1,-11
6143555,3,6,-8,-2,-1,0,1,29
6150062,3,6,-3,1,-1,-1,-3,-17
6150062,-3,-21,-2,-2,-2,-1,13,7
6159133,4,-2,1,-1,1,-3,-19,-17
6159133,-13,6,-4,-1,-1,-1,3,5
6174083,1,-10,-2,0,-2,-1,-1,1
6174083,4,0,-4,-1,-2,-1,-2,0
6176085,3,3,-3,-2,1,-3,0,1
6176085,-10,-15,-5,-8,-4,-3,1,6
6187111,15,5,-6,0,1,-1,1,3
6187111,-11,-3,4,4,3,2,-7,-17
6196850,-3,-4,-5,-8,-8,-1,3,23
6196850,29,15,6,5,4,1,10,29
6210083,-17,-13,-5,-8,-8,-3,-9,-14
6210083,-1,-2,-6,-2,1,0,0,-1
6226854,-6,-1,-2,2,3,1,-4,-9
6226854,-11,-5,-1,-2,-4,-4,-3,-2
6233854,10,-1,-8,1,1,-1,-6,-3
6233854,0,1,-5,-4,-2,-1,8,15
6235854,6,3,2,0,-1,-1,0,-10
6235854,-44,8,19,0,-4,-1,-2,-1
6246895,31,7,-26,0,-1,-2,-5,4
6246895,-6,-2,-4,-2,-3,-2,-1,5
6256906,-6,-16,1,0,-1,-2,-13,-10
6256906,7,-9,-8,-4,-3,-3,-13,31
6269816,-3,-7,10,2,2,3,26,-5
6269816,14,10,-4,-2,-2,-1,-1,13
6278820,19,1,-3,-1,-3,-2,-9,2
6278820,-46,-3,-2,0,1,0,-6,-13
6293813,-4,8,5,-2,-2,0,-7,-3
6293813,8,-10,5,-2,-3,-3,1,-9
6295593,-9,-1,3,-3,-2,-1,-3,4
6295593,4,-13,-11,-2,-1,-4,2,-18
6306806,5,-2,-3,-2,-2,-3,0,-6
6306806,-16,4,6,7,2,0,6,-9
6316623,8,4,-7,-9,-5,-1,0,3
6316623,8,0,-4,3,0,0,3,1
6329595,-11,3,6,-1,-2,-1,-2,-3
6329595,4,-10,-3,-2,-1,-3,-20,-5
6338597,-1,-8,14,3,1,0,8,6
6338597,12,3,-18,-4,-2,1,14,-12
6353927,-6,-1,1,-1,1,-1,-24,-1
6353927,3,6,2,-4,-5,-1,27,6
6355923,-5,-10,-2,-1,-2,-2,10,-6
6355923,4,2,1,-5,-5,-2,6,-2
6366897,-6,-4,0,0,0,-3,-4,-3
6366897,-4,7,-5,-3,-1,-1,-14,-2
6376898,-6,-13,-8,-1,-2,-2,-3,-8
6376898,8,4,9,1,0,-1,-6,-4
6389898,-3,-3,-2,-1,-4,-1,1,0
6389898,0,-2,1,-3,-3,-3,-2,10
6407185,4,-4,-12,-1,-1,1,1,-4
6407185,-4,14,-4,-1,-2,-1,-3,2
6413899,-7,-5,4,-2,-1,-2,-3,-2
6413899,-6,-3,-7,-3,-2,-1,1,-3
6415902,5,0,7,2,1,-2,-4,-7
6415902,8,-6,1,-3,-1,-3,-16,1
6426900,-27,7,-7,-3,-2,-2,34,3
6426900,7,-16,-17,3,2,3,-7,6
6437121,-7,4,-3,-6,-3,-3,2,2
6437121,-2,-3,5,-1,0,-3,-5,-8
6449850,12,-2,-8,-4,-3,-1,-9,-2
6449850,-10,-13,1,1,2,-2,-9,-13
6459189,-3,7,6,-2,-4,1,6,13
6459189,-6,-4,-21,0,-1,-1,2,4
6473617,1,4,-17,-6,-2,-1,0,-9
6473617,1,7,10,-1,-2,-4,-6,1
6475347,8,-4,-5,3,1,0,-8,-8
6475347,-1,-1,6,0,-1,-1,2,-1
6486567,5,-8,2,0,0,-1,-9,-6
6486567,-4,5,-4,-2,-2,-2,6,0
6496348,-1,11,-4,0,-1,-1,-1,-5
6496348,-18,-13,3,-2,-2,-1,-3,-2
6509578,7,-5,1,-2,-2,-1,1,0
6509578,1,-7,2,-4,-4,-2,-4,-6
6518350,-5,0,2,2,1,-2,8,3
6518350,11,3,-1,-4,-3,0,-2,7
6532353,-13,-6,3,2,-1,-2,-14,-6
6532353,-3,3,-2,-4,-3,-5,9,-7
6539687,-10,-6,0,-2,0,-2,-6,-17
6539687,0,8,-12,0,1,-1,9,7
6546878,2,-5,5,0,-2,-1,-10,4
6546878,6,15,10,0,-1,0,1,4
6556877,-12,-15,-14,-3,-1,-2,-6,-4
6556877,1,-6,5,0,0,-2,2,-5
6569991,13,4,6,1,-1,0,-2,-4
6569991,-6,-10,-3,-2,0,-2,-6,3
6578706,-4,13,-8,0,-1,-1,-3,4
6578706,8,-16,1,0,0,-2,-4,-17
6591997,35,15,0,1,0,0,-2,12
6591997,-52,-15,-9,-3,-4,-3,-7,-2
6601707,2,-9,-3,-2,-1,1,9,-3
6601707,0,10,6,-1,-1,-1,19,2
6606714,-15,-7,9,-1,0,-3,-1,-6
6606714,12,11,6,0,-1,-1,-1,-5
6616709,-3,-6,1,-2,-2,-1,-9,2
6616709,-2,-1,5,-1,-1,-1,-4,3
6629720,-2,-3,0,-4,-5,-1,-5,-1
6629720,4,-6,-9,-4,-3,-3,2,-3
6638709,-16,-1,9,-1,-1,-2,-3,1
6638709,14,16,-14,-3,0,-1,-5,-4
6652235,-4,-13,-10,-3,-2,-1,-3,9
6652235,-7,-15,-3,2,0,-1,-4,-4
6661545,5,-12,-11,-5,-1,-1,1,-5
6661545,-6,0,3,-2,-2,-3,-10,-6
6666875,-5,15,0,0,1,1,29,0
6666875,3,-1,-1,-1,-3,-1,0,5
6676545,5,-2,1,2,-2,-2,-6,1
6676545,-1,-4,-2,-2,-1,-1,-10,-7
6689546,-4,10,-4,-2,-1,-1,-8,0
6689546,19,-7,7,0,1,5,30,3
6698548,-4,-4,14,2,-1,-3,3,8
6698548,5,-1,1,-2,-2,-1,-8,-3
6711834,-9,-4,-3,0,1,0,-2,4
6711834,-4,0,-3,-4,-3,0,-7,-15
6721548,-3,7,-3,-4,-2,1,-3,4
6721548,1,-14,-1,0,-2,-3,3,-8
6726555,-7,1,0,-1,0,1,-5,8
6726555,-4,16,-11,0,-2,-2,-4,0
6736549,14,-5,9,2,4,0,-16,-4
6736549,-12,-14,-6,-5,-4,-3,-2,-8
6750069,-6,6,15,0,-1,-2,8,5
6750069,7,1,-25,-3,1,-1,-3,1
6758570,-23,0,-8,-1,-4,-3,-7,-8
6758570,0,-10,6,4,1,1,7,9
6773220,-7,0,26,1,-2,-2,-10,-10
6773220,5,-2,-11,-5,-5,-2,-4,5
6779904,6,12,-6,-2,0,-2,1,5
6779904,-4,9,3,3,-2,-2,-17,0
6796223,-5,-37,-19,-3,-3,-1,34,-9
6796223,-17,4,6,-1,1,-1,-19,-1
6797906,10,0,0,-1,-2,-2,6,-6
6797906,2,13,0,-1,-3,1,-4,-1
6810221,-4,5,-8,-3,1,-2,-14,4
6810221,16,-12,6,-1,-3,-3,2,-7
6818906,-3,-5,-6,-3,-1,-1,1,1
6818906,4,-11,2,0,0,-3,-2,-6
6833217,4,8,-8,-1,0,0,0,-2
6833217,-4,1,3,1,-2,-4,-11,1
6846706,-10,2,-4,-2,1,0,5,-9
6846706,11,5,-5,-3,-3,2,9,10
6856206,-2,1,-3,-1,-2,-3,-7,-13
6856206,2,2,4,-1,-1,-1,3,15
6857706,0,1,1,1,1,0,-3,3
6857706,-12,0,-3,-1,0,-1,-1,-6
6870016,-2,-11,-6,-1,-1,-1,-2,4
6870016,14,11,15,1,-1,1,0,1
6886715,5,-12,-13,-1,-2,1,-1,-8
6886715,-16,11,-22,-1,-1,1,4,3
6891998,8,3,19,1,-3,-3,-10,-3
6891998,-12,-3,-10,-3,1,-1,0,-3
6901718,10,-3,11,-2,-4,-2,-3,-2
6901718,1,5,1,0,0,-2,1,12
6915717,-4,-11,-14,-4,-2,-3,-7,-14
6915717,12,4,-1,-1,-1,0,1,11
6917717,-19,5,-5,0,-1,-1,8,-12
6917717,-8,-13,3,-4,-1,-1,-5,4
6929731,-2,8,1,2,1,0,3,-1
6929731,5,-4,1,2,0,-1,0,-1
6938949,2,0,-6,-6,-4,0,-8,4
6938949,1,1,9,-3,-2,-3,1,-18
6952140,-2,-14,-11,-2,-1,-2,-2,-2
6952140,-6,1,-2,1,1,-3,-3,-10
6962147,9,1,5,6,0,-1,-4,6
6962147,-18,8,-4,3,3,1,1,8
6976141,-10,-4,-4,-6,-8,-5,-2,18
6976141,-12,-22,-6,-7,-4,-1,-3,-20
6978140,-3,8,-7,-10,-7,-8,-7,-9
6978140,21,-18,15,4,1,-1,0,1
6990138,-1,24,2,16,8,3,2,-16
6990138,8,-8,-13,-21,-12,-6,3,14
6998137,4,-11,16,4,2,0,-5,-6
6998137,-3,-1,-27,-7,-3,-1,3,-3
7012138,-1,-15,-4,-1,1,1,-5,10
7012138,-9,-3,13,4,3,0,0,-5
7022117,23,-1,2,0,2,-1,-3,0
7022117,2,16,12,4,0,-1,2,2
7036136,1,-6,7,1,3,3,18,-1
7036136,0,-10,-1,-4,-7,-4,-12,0
7038135,11,3,-9,-6,-3,0,12,2
7038135,-39,-12,-2,-4,0,-4,-10,2
7049924,5,25,5,-2,0,-2,-5,0
7049924,-23,-1,2,2,2,1,-4,-9
7058862,1,-16,-5,0,0,1,1,4
7058862,8,1,-4,-4,-2,-2,-2,-1
7071562,7,-7,-9,-7,-5,-3,-3,-2
7071562,-8,14,0,7,3,1,0,3
7081353,-14,-7,-5,0,-2,0,-4,-10
7081353,21,0,-2,-1,-1,1,8,10
7095639,7,-2,-4,-3,-5,-3,-13,-15
7095639,-1,-6,-1,4,0,0,10,15
7097355,-15,4,0,-2,-2,0,17,9
7097355,1,-1,3,-1,-2,-6,-17,-14
7109655,-5,-6,-2,-2,1,0,-5,-5
7109655,8,7,-2,2,0,-2,-7,-8
7118355,-4,4,-3,-1,-1,2,6,6
7118355,-18,-1,-2,-4,-3,-1,-13,-32
7131358,5,-4,-4,-4,-3,-2,30,19
7131358,-12,5,-2,1,-1,-1,-7,29
7141356,-7,-5,-2,1,0,-3,-11,-26
7141356,12,-4,0,4,0,3,7,44
7155878,-11,-6,-6,-8,-6,-4,-14,-15
7155878,-8,-3,-5,-5,-3,-1,-7,-20
7162182,30,7,4,2,1,-2,-8,9
7162182,4,-1,5,-3,-4,-1,12,-13
7169473,-6,-8,0,4,1,-1,-7,-2
7169473,8,11,36,4,3,1,7,4
7178208,-12,-1,-43,-9,-3,-1,-6,-4
7178208,0,-17,-7,-3,-3,-2,-1,-13
7192206,-2,0,-3,-3,-2,1,-4,7
7192206,2,-4,1,0,-2,-1,0,-10
7201182,-6,4,9,1,1,0,3,4
7201182,1,-4,-4,-2,0,0,-2,6
7216216,-20,-1,-3,-1,-2,-3,-3,-5
7216216,4,-9,-12,-2,-2,-2,3,9
7217183,-4,2,1,-1,-1,-2,-5,-6
7217183,-3,5,4,-1,-3,0,1,-5
7230186,-9,2,0,0,-1,-3,-15,-5
7230186,32,0,-11,0,3,1,12,3
7238184,-5,-11,3,-9,-12,-7,-23,10
7238184,-7,-3,-1,-2,-1,-1,6,1
7251700,0,4,-5,-2,0,-1,2,-2
7251700,-2,-3,-6,0,-1,-2,-7,-14
7261193,-8,5,6,1,3,-2,-10,2
7261193,0,-11,-3,-1,0,-1,-8,0
7275487,6,-4,-4,-3,-2,1,2,-1
7275487,-9,3,-3,-3,-2,-1,-5,-2
7277200,-1,-4,-2,1,0,-1,4,0
7277200,-3,10,5,-2,-3,-3,-4,-7
7289490,5,-7,11,0,-1,-1,1,0
7289490,8,10,-11,-1,-2,-1,-1,-7
7298203,0,0,-4,1,2,0,7,11
7298203,0,-16,-18,-2,-1,-6,-7,-41
7312224,16,2,7,3,2,4,9,26
7312224,-6,-3,1,-1,-1,-1,-6,-5
7321268,-3,19,-7,1,-2,-2,5,-15
7321268,-8,-22,-3,-1,-1,1,3,31
7335206,9,-11,-3,-3,-2,-4,-34,-11
7335206,-4,-10,-9,-1,-1,-1,13,-9
7337205,2,11,4,0,-2,1,1,3
7337205,-17,7,1,1,1,2,9,5
7349994,-10,-4,-6,-6,-4,-3,-13,-9
7349994,-3,-4,1,-1,0,-1,2,5
7358495,-3,-12,0,0,1,0,-5,-5
7358495,12,13,6,0,1,-1,-4,-1
7371787,6,3,-6,-3,-4,-1,10,-12
7371787,-13,-1,1,0,-1,-1,-8,-11
7381511,12,-4,1,-1,-3,-3,9,12
7381511,-6,-1,2,0,-1,-1,-13,-10
7395795,0,0,-20,0,1,0,2,5
7395795,5,19,21,3,-2,-3,22,-10
7397511,-7,-13,-15,-4,-2,-3,-9,-6
7397511,-1,-23,2,1,-2,-3,2,10
7409845,-10,15,8,-5,-4,-4,-8,-8
7409845,2,-16,-4,-5,-2,0,-5,-1
7418511,-17,2,4,-1,-1,-1,2,2
7418511,7,9,-5,0,0,0,1,0
7431513,1,4,2,3,1,1,-6,-1
7431513,-12,1,-4,-2,-1,-2,-3,5
7441513,0,-14,2,0,-1,1,9,0
7441513,-2,-2,-4,-4,-3,-2,-14,-9
7456082,-5,-9,3,0,-2,-2,24,-1
7456082,11,8,-3,-3,-1,0,-4,23
7458082,-27,-1,0,-5,-4,-4,0,-15
7458082,12,-13,-1,-3,-3,-2,6,0
7470022,6,2,-2,-4,-4,-3,-18,9
7470022,-15,-14,-6,-3,-3,0,8,-19
7479019,5,13,2,3,0,-1,5,5
7479019,5,6,5,-1,0,-1,-4,2
7491982,-31,-8,-12,0,-1,-2,-4,-7
7491982,5,-2,-4,-1,0,-4,-6,1
7501794,0,-3,0,1,1,-2,-9,1
7501794,-5,0,6,-3,-1,1,4,-2
7515768,24,8,5,4,1,0,5,3
7515768,-49,-4,-4,-2,-2,0,-4,-8
7517795,13,8,-1,-1,0,0,3,4
7517795,4,-1,-1,2,0,-1,-4,-1
7529760,-7,-19,1,-2,-2,-1,7,-3
7529760,8,10,1,-2,-2,-2,-7,-2
7539002,9,1,0,-3,-2,-1,-4,-3
7539002,-8,-4,-4,-3,-5,-1,-9,-5
7552008,1,2,5,2,2,-1,9,21
7552008,20,-1,0,-6,-3,0,-7,-6
7562010,-12,-12,-2,2,2,1,0,2
7562010,0,7,-2,-3,-2,-3,-5,5
7576121,4,6,-1,-2,-2,-4,-14,2
7576121,6,-1,-4,1,1,2,29,-7
7582136,7,0,0,-1,-1,-2,-6,3
7582136,-2,-6,10,1,0,-4,2,-5
7590117,-5,-1,-19,-2,0,0,-9,-5
7590117,-1,-3,-1,-1,-2,-3,-14,5
7598121,1,-2,1,-2,0,2,2,-8
7598121,-3,15,2,-1,-1,-1,6,8
7612086,1,-10,0,-2,-1,-1,2,-9
7612086,-4,-7,-1,-1,-4,-4,-9,0
7622087,16,4,-5,-3,-3,-2,1,-7
7622087,-4,3,10,0,-1,0,-4,0
7635020,0,9,-19,-2,0,0,11,-5
7635020,2,-21,8,-1,0,-2,-4,-2
7643023,-22,-4,2,0,-2,-1,-5,-1
7643023,0,-2,-5,0,-3,-2,7,-10
7650040,0,4,6,0,1,2,-9,-6
7650040,7,-4,13,1,1,-2,-3,-1
7658541,2,-3,-25,-5,-5,-4,-21,-5
7658541,1,11,1,-2,-1,2,34,-2
7671996,3,-1,7,-2,-2,-3,-3,-7
7671996,-3,-3,-8,-2,-1,0,-14,6
7682029,-3,-13,7,-3,0,-1,-1,-11
7682029,5,1,-5,2,-1,-2,-10,1
7696023,-7,-11,-1,-4,-3,0,6,-1
7696023,3,9,0,2,2,2,-5,2
7701991,-13,-3,0,-4,-3,-2,3,1
7701991,-1,2,-11,-4,1,0,-5,-2
7710029,2,-2,3,-1,-3,0,5,-2
7710029,-13,3,-3,-3,-3,-4,-10,-10
7718762,1,0,3,1,-1,-1,8,0
7718762,1,-8,-1,0,-1,0,3,11
7731765,-9,-10,-1,-1,0,-3,-12,-2
7731765,4,3,-8,0,-1,1,9,-2
7741764,-1,10,6,0,-1,-2,0,-1
7741764,-2,-11,-6,-1,0,0,-10,0
7755828,-8,0,12,0,-4,-2,5,-6
7755828,-7,-4,-1,-3,-1,-3,-2,7
7762097,4,3,-30,-4,0,2,-6,1
7762097,1,-13,4,-1,-1,-1,18,-2
7779114,3,10,5,1,0,-2,-14,-1
7779114,-18,-9,-6,-4,-3,-1,1,-11
7780105,3,-8,7,0,-3,-3,-2,5
7780105,0,1,-2,0,0,-1,-8,0
7792105,4,0,-7,-6,-2,-2,1,-2
7792105,-11,-5,-3,-1,-2,0,1,-18
7801112,32,2,5,0,2,-1,-5,15
7801112,-1,11,-2,-5,-4,-2,1,-3
7815107,2,5,3,-1,1,-1,4,-5
7815107,-1,-24,-5,1,0,-2,-5,1
7822155,-17,-9,18,-1,-3,-2,-5,-16
7822155,0,1,-15,-1,-1,-2,-6,-4
7839188,5,6,-5,0,0,-1,1,1
7839188,5,8,1,-1,-1,-1,0,12
7840109,-2,1,3,1,0,0,2,-23
7840109,5,-1,-1,-1,-1,-1,-12,18
7852151,-1,-8,-1,-1,-2,-2,0,2
7852151,5,5,-6,-4,-2,-2,-4,3
7861909,-9,-1,1,1,1,2,-6,10
7861909,1,10,-1,-1,-1,-4,-5,-10
7876181,-8,-14,-5,-3,-3,-1,-7,-7
7876181,15,8,-2,-2,-3,-3,0,14
7881917,-5,1,-2,0,0,-2,-1,-4
7881917,-7,10,-2,-1,-2,-1,-10,-5
7898917,-11,-25,2,1,0,1,2,3
7898917,16,1,-7,-4,-1,-2,1,-3
7900917,-2,-5,4,-3,-3,-1,3,1
7900917,-6,1,-13,-5,-1,-2,-1,1
7913143,-3,5,0,0,-2,-2,5,-11
7913143,-4,0,1,0,0,-1,-1,2
7921918,5,0,-6,-2,0,0,3,0
7921918,-20,-6,7,0,1,0,-2,-1
7936182,0,1,-12,-5,-3,0,1,-3
7936182,-1,-7,2,1,0,0,-1,0
7941920,-7,4,1,0,0,1,0,12
7941920,15,-3,-2,-1,-1,-2,-1,-7
7958944,-1,3,3,0,2,-1,0,0
7958944,-4,5,8,4,1,-1,2,11
7960445,-6,-8,-12,0,-1,-4,2,-10
7960445,8,-13,2,-7,-6,-3,-4,-15
7972080,-4,0,-2,-1,-2,-1,0,7
7972080,5,-3,1,-2,-2,0,1,-15
7980952,-7,27,3,-1,-2,-2,0,0
7980952,-3,-30,-5,3,-1,-4,-6,-4
7996107,4,9,4,2,2,2,4,-4
7996107,3,9,4,2,1,0,0,8
8002072,-10,-28,-35,-21,-14,-7,-4,3
8002072,9,4,13,3,2,2,1,0
8019181,-23,0,-5,3,-1,-2,-2,0
8019181,-8,12,-3,5,1,-1,-4,-1
8020955,11,-16,-16,-5,-1,-1,6,-8
8020955,-21,-9,-15,-12,-4,-2,-1,1
8031955,14,2,6,2,0,1,1,-5
8031955,-18,-1,4,-2,-1,-2,-4,-6
8041173,8,-5,12,5,1,0,0,6
8041173,-1,15,-6,-1,0,3,9,13
8055966,-8,0,19,1,-1,-1,1,-7
8055966,5,-8,-6,-4,-4,-2,-8,-5
8061467,-7,-10,5,2,0,0,17,-8
8061467,0,1,-2,2,2,1,-2,5
8078770,-1,4,-6,-3,-4,-3,-3,-10
8078770,6,-6,-5,-5,-2,-2,-10,-12
8080477,-5,-15,6,2,2,1,-7,-4
8080477,-4,-5,3,0,-2,-1,6,11
8091764,17,13,-4,-4,-3,-1,5,11
8091764,-12,-8,-4,-4,-2,-2,5,-12
8101480,-2,7,6,2,-1,-2,-10,1
8101480,-6,10,1,0,-1,-3,-7,-27
8114486,16,-4,-1,-1,-3,-3,-5,6
8114486,-3,-2,-5,-1,1,3,9,28
8123478,-6,6,6,1,1,1,3,4
8123478,1,0,-8,1,-3,-2,-9,-14
8138481,-14,-7,7,-1,-3,-4,-25,4
8138481,2,4,-5,-3,-3,0,17,-32
8140481,6,6,8,5,2,1,6,43
8140481,33,-23,3,-3,-1,-1,-1,2
8151990,-28,-2,-8,-1,2,0,0,12
8151990,-2,-2,-1,-2,-4,-5,-20,-16
8166010,-1,6,8,-1,-1,-3,-11,-11
8166010,19,16,6,2,1,0,-3,-4
8175088,-2,-17,9,1,1,0,3,-11
8175088,-5,6,-19,-1,2,-2,1,-6
8184076,15,3,20,-2,-3,-1,-1,-2
8184076,-8,0,-5,-3,-2,-4,-5,2
8199084,4,2,0,-3,-4,0,5,-4
8199084,-15,-11,5,0,-2,-2,1,6
8200105,-1,-3,-15,1,0,-1,-2,-14
8200105,-10,8,-6,-3,-4,-2,-2,-1
8212068,6,-7,-6,-3,-3,-1,0,13
8212068,19,16,5,-1,1,-1,1,-6
8222066,-9,-7,-4,-2,-1,-2,-10,4
8222066,-14,-17,0,0,1,-1,3,-12
8235100,-2,6,-8,-5,-5,-6,-5,-6
8235100,0,-6,3,-1,-3,-4,-14,14
8244099,-1,9,-1,1,0,2,9,-5
8244099,-6,4,-2,-2,-1,-1,-1,7
8258999,-4,-8,-5,-2,-1,-2,2,2
8258999,-2,-5,1,-2,-3,-2,-11,2
8260965,-5,0,-9,0,-1,-3,-16,-16
8260965,5,-5,6,4,2,3,25,15
8272709,5,-3,-6,-1,0,0,7,-2
8272709,3,4,0,-4,-2,-1,6,-2
8281450,-6,-11,-9,-2,-2,-1,-1,0
8281450,-7,8,3,1,-2,-4,-10,-8
8294676,5,-6,-4,-2,-1,-1,-3,2
8294676,0,-5,-1,1,1,1,11,4
8303451,5,-1,2,-3,-4,-4,-5,-3
8303451,-6,5,-4,-1,-2,0,-3,-6
8318742,-11,-5,-2,0,0,0,2,0
8318742,16,-15,-10,-3,-3,0,-9,4
8320453,-5,-1,4,-3,-3,0,19,-7
8320453,14,11,-1,0,0,0,-11,13
8331455,5,17,17,0,-2,-1,5,-2
8331455,-6,-13,-19,-5,0,-2,-2,-1
8341455,-11,-29,-16,-3,-3,-3,-7,2
8341455,-1,2,-9,-3,-2,-2,-7,-9
8354968,-6,-4,11,2,0,-1,15,-4
8354968,-8,7,10,2,0,-1,-2,-2
8364478,8,7,4,1,1,0,-9,-14
8364478,-9,-8,-6,-2,-3,-5,-6,3
8378478,3,3,-10,-4,-3,-2,7,-10
8378478,-4,-9,3,1,0,0,3,2
8380477,-3,6,-3,-1,-2,-3,0,2
8380477,-5,1,-2,-2,-1,0,-7,5
8392705,-7,-2,-9,-2,0,-3,-12,-14
8392705,6,3,7,-1,0,1,23,-2
8401478,7,-5,-2,0,-1,1,0,-5
8401478,-21,-6,-3,-2,-3,-2,1,-2
8414696,3,0,10,0,-3,-2,-12,-2
8414696,-6,3,-11,-2,-2,-3,-4,-8
8423479,-2,-3,2,2,-1,-3,-6,10
8423479,-3,-7,1,-2,-2,-1,4,-5
8438709,0,3,-2,-1,2,0,-3,-3
8438709,-4,-1,1,-3,-2,-2,-7,11
8440480,-6,12,-1,1,0,1,2,-1
8440480,-10,-6,-5,-4,-2,-2,-6,-13
8452071,9,-3,-3,-1,1,1,6,7
8452071,-10,7,9,-2,-2,-2,-6,-2
8462066,-2,-8,-23,-4,0,-3,2,-3
8462066,-5,1,6,3,1,1,-9,13
8474499,1,-2,0,1,-2,-1,-8,-14
8474499,-6,3,-1,0,-2,-1,18,2
8483493,1,12,11,0,0,3,5,2
8483493,2,-9,5,-2,-3,-4,-13,-16
8498494,-15,-1,-4,0,0,-1,0,-2
8498494,19,-3,7,1,1,-2,-4,4
8500494,9,15,4,-1,-3,-3,-10,-3
8500494,-11,7,-4,2,2,1,10,6
8513495,2,-21,-5,-4,-2,-2,-7,-5
8513495,1,1,-6,-3,-3,-2,-5,-14
8521496,11,-4,2,-1,0,0,0,2
8521496,1,3,-2,-4,-2,-1,0,2
8534499,-2,8,-3,-1,-1,-1,0,-5
8534499,-11,-10,-3,-1,0,0,-10,-5
8543498,-7,4,0,-1,-2,-1,4,10
8543498,9,-1,1,1,1,2,14,8
8558101,-18,-7,-5,-2,-3,-1,-2,15
8558101,7,-2,-4,-1,-1,-1,0,-1
8564528,-5,-3,2,0,0,-1,-10,-3
8564528,-7,-6,14,0,2,-2,-11,-12
8572736,12,7,-31,-5,-3,-1,2,-1
8572736,-5,-2,0,-1,1,0,-5,-7
8581529,6,0,-11,-2,-3,-3,-3,-2
8581529,0,10,10,2,1,-1,-5,9
8594775,-9,-4,4,-4,-2,-3,-9,-9
8594775,-5,-11,-5,-2,-3,-2,-1,2
8603530,2,5,-3,-1,-1,-1,-2,-9
8603530,0,-19,-12,-4,-2,0,-4,-5
8617816,2,8,5,-1,-1,-1,2,3
8617816,10,0,-1,-1,-4,-3,0,10
8624845,-13,-6,8,0,0,0,2,-13
8624845,2,8,-7,0,-2,-1,14,2
8632534,-9,-9,-3,0,0,-2,-18,3
8632534,0,1,4,1,-2,1,-9,-3
8641533,-9,-8,0,-3,-4,-2,2,-1
8641533,-8,-1,-7,-3,-2,-1,7,-7
8654546,12,-6,-4,1,0,-3,-7,-9
8654546,-5,14,-3,-1,1,-3,-10,13
8663402,2,-3,20,0,-1,-1,-1,5
8663402,3,-1,-11,-1,0,0,-3,-15
8677690,9,-2,0,-2,-2,-2,7,13
8677690,-21,-3,-1,0,-2,-3,-6,-10
8684696,-4,-2,-2,-2,1,-3,1,7
8684696,6,3,14,1,0,-2,-2,-3
8701405,-9,-13,-28,-3,-3,-1,-3,6
8701405,-4,5,15,2,-1,-1,4,-4
8703399,-3,14,-3,-3,-1,0,8,-7
8703399,2,-9,-1,-2,-5,-3,-3,3
8714400,-7,-18,2,-1,-1,-2,-3,-4
8714400,2,-1,-7,-4,-2,-3,4,-2
8723399,0,-2,-7,0,0,-1,-2,-11
8723399,-3,14,-4,0,0,0,-7,-1
8737407,7,11,10,1,1,0,8,0
8737407,0,-15,-15,-3,-3,0,-20,-4
8744408,4,4,11,0,-2,1,31,0
8744408,-8,-14,-4,-1,-1,-3,-7,-2
8761212,5,0,0,-3,-2,0,10,1
8761212,-19,-4,0,-1,0,-2,-5,-8
8762429,-3,-12,-13,-1,-2,-2,-14,4
8762429,1,4,3,-1,-3,-1,2,-1
8774645,-10,-2,-2,-3,-2,0,-1,12
8774645,13,11,12,0,-1,1,-1,-21
8783436,-6,-8,-4,-3,-1,-2,25,13
8783436,10,-6,4,-4,-4,-1,6,-11
8797439,-17,8,4,-1,0,-2,-10,-7
8797439,-10,-3,7,-2,-3,-2,5,-1
8804727,-10,8,-16,1,1,-2,-19,-7
8804727,13,2,-5,0,0,2,0,14
8828446,-1,-15,4,-3,-5,-2,-3,-11
8828446,-4,4,-10,-4,-2,-2,-3,0
8830447,-6,-11,10,-1,-2,-2,-7,-13
8830447,-3,15,-6,0,0,-2,-16,1
8834440,6,-7,-3,1,2,2,35,1
8834440,-3,-2,2,-1,-1,-2,0,-2
8843441,13,0,-2,-3,-1,-1,-11,28
8843441,-10,3,-2,-4,-3,-5,6,-8
8858076,5,8,0,1,1,-1,-15,2
8858076,4,-4,-1,-1,-2,-2,3,4
8864940,0,-20,-2,-3,-1,-1,-2,-7
8864940,-6,-7,-1,-4,-1,-2,2,-2
8880677,-4,0,-3,1,0,-2,-2,-5
8880677,5,9,-6,0,-2,-1,7,3
8882676,-1,11,9,0,-2,-2,-12,-14
8882676,-7,-15,-5,-2,-3,-2,-5,0
8894908,3,-6,9,0,-1,1,1,19
8894908,-4,-4,-2,0,-2,0,2,0
8903908,1,-14,1,-1,-1,-4,-6,-3
8903908,-5,-2,-5,-1,0,-1,-1,5
8917947,5,12,3,0,-1,-1,-2,-3
8917947,-5,3,-1,-3,-1,-1,2,-18
8926910,-5,-7,-7,-3,-4,-1,0,5
8926910,8,5,-3,-3,-1,-1,-1,-16
8940908,-3,-1,-3,-4,-5,-5,-10,-1
8940908,12,-12,1,4,2,1,1,8
8942908,-3,11,-6,-1,-2,0,-1,-16
8942908,5,-8,-4,-6,-4,-1,0,1
8954951,-26,-17,-3,-9,-4,1,-7,-11
8954951,0,-6,6,6,3,1,6,0
8962948,2,-3,-8,-6,-5,-2,-3,-1
8962948,-2,2,3,1,0,1,2,18
8977953,10,12,-2,-2,-2,-4,5,-6
8977953,13,-2,2,-2,0,-4,-4,18
8983959,-44,3,4,7,1,1,-5,-14
8983959,-6,-11,-7,-4,-2,-1,2,-4
9001073,-7,-3,-3,-1,-2,-1,-5,-10
9001073,10,1,-4,-4,-3,-2,0,-3
9003081,-8,3,-1,-4,-3,-2,0,2
9003081,1,13,5,3,-2,-4,-6,9
9015040,6,-1,0,6,4,-2,-3,-12
9015040,-11,7,8,7,3,3,2,-7
9024072,20,-27,-17,-15,-6,-2,-1,5
9024072,-27,-7,-14,-5,-2,0,1,-7
9038073,8,-12,-4,0,-2,0,-3,-5
9038073,2,0,-3,1,1,-2,-9,20
9045070,16,14,7,2,1,1,12,-17
9045070,-20,-2,5,1,0,0,-3,-3
9060965,-3,-4,3,-1,-1,-2,-12,8
9060965,14,10,-8,-4,-4,1,37,-10
9062965,-3,-5,0,1,1,-3,-24,7
9062965,21,2,2,1,-1,-2,6,-6
9075078,-18,2,-4,-2,0,3,-4,-11
9075078,11,-6,-7,-7,-7,-3,-11,21
9083045,-44,-3,-3,-2,-1,-2,-9,0
9083045,17,3,0,1,-1,-2,-3,-16
9097974,-11,-12,1,1,1,0,2,6
9097974,10,0,-6,-2,0,-2,-1,-5
9105142,22,10,6,1,-1,0,2,-3
9105142,-12,-10,-1,-1,-1,-1,3,-8
9121143,5,11,-3,-2,-2,-4,-9,9
9121143,-9,-11,-9,-7,-4,-2,-2,-16
9122976,-16,10,6,2,0,2,-3,-63
9122976,2,-25,-26,1,3,3,0,63
9134976,15,12,5,-2,-5,1,9,10
9134976,-13,-4,-9,-4,-2,-3,-8,-7
9143143,0,0,0,-1,0,-2,-4,14
9143143,5,3,5,1,-1,-1,-4,-30
9157988,-3,9,13,-1,-4,-2,3,-15
9157988,0,-11,-19,-5,-3,-3,-20,20
9164995,-2,8,-1,-2,-1,-1,6,0
9164995,-4,-8,4,-2,-2,-1,0,-1
9180005,3,-4,-22,0,0,1,5,1
9180005,-11,4,6,-3,-3,-2,-5,-13
9181995,10,-10,-7,0,1,-1,5,14
9181995,8,8,6,4,1,3,-1,-4
9204143,-2,8,0,-1,-2,-4,-9,-1
9204143,-4,-13,0,-1,-1,0,2,-17
9204996,8,-12,-5,-2,-1,-4,0,20
9204996,-2,1,5,1,-1,-3,-12,9
9217003,-7,3,3,1,2,6,18,-7
9217003,5,4,0,-4,-4,-4,-6,-5
9225138,7,0,3,2,0,-1,-3,35
9225138,-3,4,3,0,0,-2,21,-12
9240999,-4,-8,-3,-4,-2,-2,-5,-3
9240999,-2,4,1,-1,0,0,0,-2
9241998,3,-7,-2,-1,-4,-3,-12,-4
9241998,-6,-2,-3,-2,-4,-3,-7,-10
9254527,0,4,9,3,1,-2,-2,1
9254527,-10,-6,-1,-1,-1,-1,1,2
9263010,1,4,-3,-3,0,-2,3,-10
9263010,-3,7,2,-1,-1,0,1,3
9278135,-4,-27,-3,-5,-2,-3,1,3
9278135,-8,1,2,-2,-1,-1,-7,-5
9285136,4,12,7,3,1,1,8,-10
9285136,5,-8,8,-4,-3,-2,-13,3
9301195,6,7,-2,-1,-1,-2,-6,-19
9301195,-3,17,0,1,2,1,-5,7
9302019,-17,-27,-6,-3,-2,0,44,6
9302019,4,3,-8,-5,-2,-1,-9,-4
9314019,-2,-5,-8,-4,-2,-5,-7,-5
9314019,-15,-5,6,0,-2,-2,-5,-8
9323137,19,13,-1,0,2,0,-11,-6
9323137,-6,-2,-3,-1,-1,-2,-1,-7
9346103,3,2,12,1,-2,-1,2,2
9346103,3,0,-4,-3,-2,-1,2,17
9347022,-10,1,-6,-2,-2,-1,-11,3
9347022,-2,-17,-7,-1,-3,-2,5,4
9361032,1,8,-1,0,-2,-3,-12,-17
9361032,-5,-7,-1,2,-2,-1,0,-16
9363032,-8,-7,4,-5,-2,-2,-1,-4
9363032,12,6,5,-1,-2,-2,9,-9
9374753,-9,6,3,2,0,0,7,8
9374753,0,-10,-6,-3,-3,-3,-2,-4
9383538,5,-15,1,-3,0,0,-6,2
9383538,-13,1,4,-2,-3,-4,-4,-11
9397541,3,3,-5,-1,0,-1,-7,3
9397541,11,-1,-2,-2,0,2,6,0
9406541,1,-2,-3,2,-2,-5,-8,-5
9406541,-1,7,-3,-3,-4,-1,-5,-2
9420829,-2,-2,-6,0,-1,-2,0,6
9420829,4,-7,-2,-4,-1,-2,-12,-5
9422541,2,10,1,-2,-2,-2,8,1
9422541,2,-5,-5,0,1,0,-2,-5
9434549,-15,1,-5,-1,0,1,-3,-1
9434549,-12,-5,0,1,0,-1,-3,-4
9443542,6,1,-2,-2,-3,-2,-7,18
9443542,35,7,0,0,-1,-1,0,-7
9457552,-20,-5,-3,0,-1,-2,-4,12
9457552,-1,-13,-1,0,0,-1,3,0
9466060,-3,7,18,2,0,1,-3,2
9466060,-8,6,-21,-3,-1,-5,-1,5
9480062,11,-11,-7,-2,0,0,3,-1
9480062,9,10,3,0,-1,-1,16,8
9488134,-21,-4,-7,1,-3,-2,-5,-3
9488134,-13,11,13,1,-2,0,1,-4
9494063,17,-9,2,0,-1,-1,-2,-1
9494063,1,2,-2,-1,-1,-2,0,-11
9503062,0,-1,-7,-3,0,-2,-1,-6
9503062,-5,4,1,-1,0,-1,-11,5
9518062,0,-13,-3,-4,-3,-2,1,2
9518062,-19,0,-1,0,-1,-1,-2,-3
9527063,8,-1,-9,-2,-1,-1,-2,-3
9527063,-11,-10,1,0,1,0,0,4
9541063,-6,5,5,1,-1,-1,-12,-16
9541063,11,1,0,0,-2,-1,15,19
9547065,6,12,3,3,1,-1,-2,-1
9547065,-8,-16,-9,-3,-1,2,-6,-2
9554572,-5,-15,-13,-4,-2,0,-2,-2
9554572,12,11,8,0,0,-1,-7,-7
9563574,-4,-9,-8,-2,-2,-2,-4,-9
9563574,-5,-7,0,-3,-1,-2,7,-2
9578125,-10,1,2,-1,-2,-1,-6,-5
9578125,-11,1,5,-2,1,-1,-3,-1
9586135,11,-1,-17,1,-1,0,0,3
9586135,-11,4,12,1,0,-1,1,-5
9601129,1,-5,-7,-2,0,-1,-1,9
9601129,2,3,1,-1,-1,-1,0,9
9608129,6,-18,0,-2,-2,0,-12,-5
9608129,-3,-1,-8,-2,-2,-3,-10,-2
9614085,7,6,4,0,-2,1,7,-2
9614085,-3,-8,-8,-1,-1,-3,-14,-3
9623127,6,6,1,-1,0,2,27,-4
9623127,1,-6,-2,-1,0,-3,-14,6
9638115,3,12,2,-4,-2,-1,1,4
9638115,6,-1,-4,-3,-2,-1,-3,-16
9647087,-20,-7,-3,-4,-3,-3,-13,-6
9647087,2,-7,0,-1,-3,-1,21,2
9660895,0,3,-1,3,1,-1,3,1
9660895,-4,1,6,-1,-4,-1,-4,-13
9668126,2,-2,-13,-2,0,1,2,14
9668126,-7,-4,-9,2,0,1,-3,0
9684108,8,-8,7,-3,-2,-3,2,1
9684108,1,10,0,2,0,3,-8,5
9685109,2,1,4,0,-1,-1,7,-3
9685109,8,6,4,1,-1,0,-1,-1
9698110,2,-2,1,-2,-1,-2,-14,-8
9698110,-33,-9,-4,-2,-1,-2,5,-7
9706124,13,9,5,-1,0,-2,6,7
9706124,0,-14,-4,-2,-2,-3,-5,4
9720113,-6,-4,1,-1,-2,-2,-3,-6
9720113,-2,1,-4,-1,-1,0,26,2
9728111,5,1,-1,-2,-2,-2,-11,8
9728111,0,18,3,-1,0,0,1,-18
9751151,-4,-13,-5,-2,-2,0,4,1
9751151,3,-11,-10,-2,-1,-4,-15,-1
9752622,-8,-4,1,-4,-3,-1,-1,-9
9752622,6,3,4,-1,-2,0,-5,8
9757922,2,-1,-4,-3,-2,0,-3,-5
9757922,-19,0,2,-1,-1,0,1,2
9766132,-5,0,2,0,1,-2,-6,0
9766132,-1,-10,-4,0,0,-2,13,0
9780131,-5,8,-1,-1,0,-3,-5,-6
9780131,13,-8,16,1,0,0,-3,19
9788132,-15,0,-12,-4,-4,-4,2,-12
9788132,-11,3,-2,-1,-1,1,-12,3
9804133,-10,-1,-6,-2,-3,-2,1,-9
9804133,7,10,11,1,1,-1,-5,5
9805133,0,0,-1,-2,-3,-3,-10,-5
9805133,-3,-9,4,-1,-2,1,-2,11
9817436,-7,5,-27,-2,-2,0,4,-20
9817436,3,-5,-11,-4,-1,-1,-14,-6
9826134,-4,1,2,1,0,0,13,1
9826134,3,-24,-3,-3,-2,-3,-5,-4
9840142,-12,-2,4,1,2,-1,0,10
9840142,3,5,-1,1,-3,-2,-4,-17
9848644,-5,6,-3,-1,-2,-1,-8,-10
9848644,3,-7,-5,-1,0,-1,4,11
9863646,8,1,3,-2,-4,-2,-1,-1
9863646,-2,-5,-9,-3,-1,-3,-5,-11
9865155,-14,7,6,0,0,1,12,-2
9865155,1,-4,-5,-3,-2,-1,-6,-4
9878154,5,4,8,3,-2,0,0,0
9878154,4,6,-4,-3,-1,-2,1,14
9886155,9,-8,0,-2,-3,-4,-10,1
9886155,9,-1,-1,0,0,0,-5,-13
9901155,2,-3,-12,-3,-3,1,10,-1
9901155,-8,-3,-3,-3,-2,-2,0,1
9908155,8,-11,6,-2,-1,-2,-4,-2
9908155,-3,13,1,-1,-1,-3,3,-2
9923164,11,3,1,-2,-2,0,-4,0
9923164,-7,-20,-9,-1,-3,-2,2,2
9925158,11,-6,3,-1,-1,1,0,-5
9925158,-35,8,1,-2,0,-2,1,-1
9938158,-4,2,4,-1,0,0,0,-5
9938158,2,8,-1,-3,-1,0,0,1
9946158,0,-14,-12,-4,-2,-2,-4,5
9946158,-1,-6,-5,-4,-3,-1,-1,-7
9961171,8,-1,-1,-1,1,-3,2,5
9961171,-3,-10,0,1,-1,-1,0,-13
9967465,-11,9,-1,2,-1,0,-5,2
9967465,-6,-11,-1,2,1,0,4,10
9984178,6,6,2,0,-2,0,-2,-9
9984178,21,-2,-2,-2,-1,0,4,12
9985179,1,-5,-3,0,-2,-4,-4,-23
9985179,-2,-2,-6,-8,-9,1,2,-7
9997180,-4,-2,5,7,5,-1,0,2
9997180,-4,7,-5,-2,-3,-2,-4,-10
10006180,6,0,3,0,-1,-3,0,11
10006180,9,8,-2,-1,3,2,0,-4
10020187,-5,-11,-3,-4,-8,-5,-2,28
10020187,-1,-11,-3,1,1,2,3,-6
10027183,-17,6,-29,-6,-6,-7,0,-7
10027183,6,0,11,-7,-6,-2,-8,-10
10044181,16,10,4,1,1,0,-4,23
10044181,-51,2,1,5,2,-2,1,8
10045182,-13,-13,9,2,1,3,3,8
10045182,13,-7,-24,-2,1,-2,-5,-17
10057952,-39,10,0,-5,-4,-1,-2,-1
10057952,32,-5,-7,-2,-1,-3,-3,2
10066198,-7,4,6,1,1,2,-10,-5
10066198,2,6,6,1,-1,1,28,4
10080200,1,-20,-2,3,3,0,-2,-8
10080200,11,0,-5,0,-1,0,-1,-3
10087434,5,5,20,-4,-2,-2,-4,-6
10087434,10,6,-17,-2,-2,-4,-3,4
10102414,-2,8,2,-2,-2,0,2,-6
10102414,-3,-7,-1,-3,-3,-1,2,-7
10111200,7,1,1,-2,-1,-2,-1,4
10111200,-21,-9,7,3,1,-2,-2,1
10118202,15,-5,-6,-3,-1,-3,-4,-3
10118202,-7,16,2,-3,-2,-1,-5,-9
10126202,1,-10,-7,-3,-1,-1,-3,2
10126202,-2,-3,2,0,-1,-3,-4,-6
10140229,-5,5,-2,0,0,-1,-3,-9
10140229,5,-20,-1,-5,-2,-3,2,5
10147204,-5,3,-5,-1,0,-1,-19,-1
10147204,10,2,4,2,0,0,0,4
10163715,6,4,1,-4,-1,-3,9,-12
10163715,-8,3,0,0,-1,-1,0,5
10165226,-1,-7,-5,1,-1,-1,-7,-3
10165226,-15,1,3,4,-1,0,-6,11
10177460,-4,0,-2,0,0,-2,-6,5
10177460,-1,4,0,1,0,0,2,-9
10186227,2,-8,1,-1,-2,-1,-6,2
10186227,2,-6,2,-3,-3,-2,-4,-2
10200491,3,3,-3,-3,-3,-2,3,17
10200491,-3,-5,-4,3,-1,-3,-10,-10
10207461,9,8,-8,-3,-2,0,4,-20
10207461,-7,2,11,0,0,-2,-11,1
10223235,10,-14,-2,-1,-2,0,9,-23
10223235,-22,10,-6,-1,-2,-1,17,15
10225265,1,7,14,2,-1,-2,4,2
10225265,5,3,-14,-6,-4,-1,-3,-4
10237492,-10,-22,-2,-1,-1,-2,-6,-5
10237492,15,-11,0,-2,0,0,-5,-1
10247231,-7,-3,-6,-1,-1,-2,6,0
10247231,-7,19,0,-2,-2,-3,-8,4
10261011,6,-1,8,1,1,-2,-14,-3
10261011,-3,-10,-7,-2,0,-1,3,3
10268024,-3,0,0,2,0,2,4,3
10268024,-3,-2,0,-6,-6,-5,-19,-9
10284032,2,-4,15,1,-1,-1,-5,-10
10284032,-17,16,-28,-4,-2,0,-6,14
10285794,-1,-7,-6,-2,-4,-2,25,-9
10285794,2,-1,17,5,6,1,1,4
10297995,-16,-10,-4,-6,-5,-5,-14,-29
10297995,2,3,13,-1,0,-2,-4,13
10306994,2,-2,-8,-2,-2,1,3,19
10306994,3,-4,-2,-1,-2,-2,6,-9
10321026,-6,5,4,2,2,1,3,5
10321026,4,4,1,-2,-4,-1,-6,-21
10327761,-2,-2,-3,-2,-1,-3,-3,-3
10327761,0,-2,-3,-1,0,0,3,1
10343762,-5,-1,-7,-2,-1,1,0,1
10343762,3,-5,1,1,-2,-1,0,0
10345763,-2,-6,0,-2,-5,-2,-5,-4
10345763,-3,-3,-4,1,-2,0,2,7
10357797,-3,0,-9,-1,-1,1,5,13
10357797,4,-4,4,-1,0,-2,3,-10
10366780,-4,2,0,-1,0,-2,-6,-6
10366780,-1,0,-6,-1,0,0,1,-6
10379781,-10,-17,-6,-3,0,0,2,17
10379781,-1,-4,2,-3,-5,-6,-13,-11
10388798,-2,7,15,2,3,2,11,8
10388798,14,12,-57,-7,-5,-3,-18,-5
10402802,3,-15,7,0,2,2,56,5
10402802,-2,-3,5,-1,-1,0,-14,-7
10409802,2,-6,-9,-4,-3,-5,-7,1
10409802,-12,-2,4,1,3,0,7,5
10417783,2,17,0,-1,-4,-5,-20,-13
10417783,31,-5,2,1,2,2,9,-12
10426783,-8,2,-3,0,2,1,3,6
10426783,3,-6,10,-1,-3,0,0,-1
10440784,-2,-8,-7,0,-1,-3,-13,-2
10440784,-9,3,4,-2,-1,-1,7,4
10454482,5,0,1,-1,0,-1,-12,-1
10454482,-12,-10,-10,-1,0,-3,8,-3
10463037,-9,10,1,-1,-1,-1,0,-1
10463037,10,-9,-6,-1,-3,0,-5,3
10469385,11,-1,-2,-3,-2,-2,-3,-23
10469385,-14,-2,8,1,-1,-2,-12,11
10477438,-1,0,-10,-3,-1,0,12,-4
10477438,-9,8,-3,2,0,1,20,2
10486189,-3,-1,2,-2,-1,-3,-6,-4
10486189,12,-5,4,-3,-2,-5,0,9
10500438,-2,12,4,-2,0,-3,-18,-13
10500438,-8,-18,0,0,0,1,-5,-8
10507433,-1,-1,-6,1,0,1,9,7
10507433,-8,2,7,-6,-6,-2,2,-8
10522197,4,-7,-2,-3,-2,-1,-8,3
10522197,-7,6,-1,-2,-3,-3,-7,-8
10529192,-9,-2,-3,0,0,-1,1,2
10529192,4,-4,1,2,4,1,-2,-7
10537193,-4,2,2,0,-1,1,-1,6
10537193,-6,-7,1,-2,0,-3,-2,2
10546194,-4,1,-5,1,-1,-2,-9,-4
10546194,5,-5,4,0,-2,0,7,5
10560954,11,0,1,-2,-2,-2,-11,-4
10560954,-39,-4,-5,0,1,2,5,19
10568012,-16,8,7,1,-2,0,22,-5
10568012,-6,5,0,-7,-5,-2,-3,-5
10583010,16,-8,-12,-1,-2,-4,-5,-7
10583010,29,3,2,0,-2,-1,-13,16
10592003,-7,-24,2,-1,-1,0,-3,-15
10592003,-2,13,20,2,0,-1,1,-4
10605973,0,-11,-15,-3,-3,-3,4,7
10605973,0,3,-4,-3,-1,-1,-3,-15
10608003,1,2,2,0,-2,-2,-9,5
10608003,13,0,6,2,1,1,8,-3
10620005,-1,6,-1,0,0,-2,-7,-2
10620005,-1,-3,-3,-2,-3,-3,-5,-8
10629002,5,-4,-8,-3,-1,-1,12,4
10629002,-40,-17,-14,-2,-1,-2,-18,-13
10643003,1,15,10,0,0,0,24,5
10643003,-6,-3,-2,0,0,-2,-13,-7
10649442,0,1,-5,-4,-1,0,7,-1
10649442,8,-2,-4,0,-3,-2,1,1
10665052,-13,-6,-4,0,0,-1,-4,2
10665052,-1,-5,3,-2,-3,-4,-4,-7
10668056,4,4,1,1,-1,-1,-16,4
10668056,10,1,-4,-2,-2,-1,0,-15
10679250,-11,-4,-1,0,-2,-1,-5,4
10679250,1,-2,2,-3,-1,-4,4,2
10688059,1,0,-7,-2,-4,-1,-8,-3
10688059,2,-6,5,-1,1,-3,-1,6
10702067,-1,-1,-32,0,0,1,-10,6
10702067,-4,2,7,0,-1,0,15,-11
10709061,-10,-12,2,-2,-3,-1,-9,0
10709061,19,8,15,1,-1,-2,0,4
10725060,-27,4,6,-1,-2,0,1,-2
10725060,17,-9,-7,-2,0,-1,-7,4
10732061,2,3,-6,-1,0,-1,-5,-2
10732061,-14,-2,-3,-2,-1,-3,-8,3
10739067,0,6,9,1,1,1,23,-4
10739067,22,-3,-7,-2,-1,-1,3,10
10748061,-31,-3,2,-5,-5,-5,-5,-9
10748061,2,-9,-23,-4,-3,-3,2,3
10762568,3,-3,4,-3,-3,-3,-16,-3
10762568,-11,3,0,2,0,0,-2,-8
10769073,11,6,-1,-2,-1,-1,3,4
10769073,1,-3,-2,0,0,0,-6,-1
10786074,-13,-4,0,-1,-2,-1,-2,-7
10786074,-14,6,1,0,-1,0,-3,-3
10788074,46,-8,0,-1,-2,-3,-27,-14
10788074,-63,16,-13,-2,0,4,41,9
10799074,31,-42,13,0,0,-1,1,19
10799074,-2,-4,-9,-6,-3,-3,-5,-10
10808076,-18,-4,7,0,0,-3,-7,7
10808076,13,-3,3,3,0,-3,-10,-18
10823075,3,11,-5,-3,-2,-1,0,-9
10823075,-18,3,-2,1,-2,-1,-9,6
10829081,4,-4,-4,0,-2,-1,6,-1
10829081,14,-4,1,-1,-2,-1,-4,0
10845268,-11,5,0,-2,-1,-1,-5,2
10845268,6,-4,1,-1,-2,-2,0,0
10848081,1,6,-7,-2,-1,3,6,4
10848081,7,-5,3,0,-2,0,-1,-1
10859783,-15,2,-3,0,-1,-2,-7,-5
10859783,-20,-5,4,0,-1,-1,1,1
10868480,33,3,-27,-1,0,1,28,18
10868480,-11,-10,27,2,-2,-1,-7,0
10882515,0,16,-11,-2,-2,-5,-1,-14
10882515,-2,-5,-9,-5,1,-2,-3,1
10889679,-15,-15,2,-2,-3,-4,-8,0
10889679,9,-1,-2,-3,-2,-3,-7,3
10906776,3,2,-5,0,-1,-1,-17,-4
10906776,7,2,1,3,1,0,14,10
10908484,-11,7,4,-2,-3,-1,-16,-1
10908484,9,-13,-13,0,4,0,-10,-8
10919773,-2,-5,3,-3,-4,-2,-4,-8
10919773,-5,-1,-5,-2,-1,-2,-3,-8
10928487,7,8,9,2,2,1,4,17
10928487,-12,8,-6,-2,-2,-2,6,-2
10942486,29,-14,-3,-4,-3,-3,2,-10
10942486,-47,-4,19,3,0,-1,4,4
10949486,-4,-8,-6,-3,0,-2,0,-9
10949486,1,4,-8,-3,-1,0,1,-7
10965717,-7,-11,3,1,1,1,2,8
10965717,23,10,-5,-4,-1,-1,3,-5
10967722,-10,1,13,1,-2,-3,-7,-9
10967722,-1,-4,-27,-2,-1,-1,-2,4
10979723,-2,12,4,-3,-3,-2,4,0
10979723,18,-21,2,-1,-3,-2,-8,0
10988993,-28,9,2,0,-1,-1,1,-11
10988993,9,5,3,-2,-1,-2,-5,-7
11002992,-6,-8,-4,-1,-1,0,3,16
11002992,0,5,-7,1,-3,-1,5,-5
11009995,20,6,-1,0,-1,0,-3,1
11009995,2,-10,9,-3,-4,-4,-13,-12
11027070,-14,1,-6,-2,0,0,13,4
11027070,19,3,5,-2,0,0,28,15
11029053,-21,-11,-27,-2,0,0,-1,-11
11029053,1,0,-2,-1,-1,-3,-10,-11
11039733,3,5,6,0,0,-2,-1,2
11039733,-4,0,5,-1,-3,0,-14,-1
11048745,8,2,5,-1,-2,0,5,0
11048745,-6,-5,-20,-2,1,0,0,0
11062738,-6,0,-3,-3,-1,-2,4,-1
11062738,7,8,-2,-1,-1,2,-13,-6
11069750,-10,-11,2,-2,-1,-3,-5,4
11069750,10,2,5,-3,-1,2,-1,4
11087006,-1,0,9,2,3,-2,-4,-7
11087006,-1,-5,-11,-3,-4,-4,-12,-15
11088774,13,0,3,-3,-3,-3,2,5
11088774,-5,-5,5,0,-1,1,3,6
11100007,3,-7,-4,1,0,-2,-7,-12
11100007,1,3,-3,-3,-2,-2,-1,4
11109006,0,2,-3,-3,-1,-2,-1,-6
11109006,-1,1,4,2,-2,-1,3,-9
11122751,-2,0,0,-2,-5,-1,-1,0
11122751,-24,8,0,-1,-1,-1,-3,13
11129750,21,-9,1,-1,0,0,-1,-26
11129750,4,3,-3,0,0,-2,2,7
11145966,5,-7,-5,-11,-8,0,-4,-14
11145966,-33,-10,-5,-4,-3,-2,-4,-6
11147775,-13,7,-12,-2,-3,-3,0,15
11147775,7,-1,8,0,-1,-2,-1,7
11159701,5,-1,5,4,-2,-2,-6,-20
11159701,-5,-5,0,0,2,1,2,-5
11168737,-5,-5,-2,-4,-3,-3,0,12
11168737,-7,-6,-14,-15,-10,-4,-1,1
11182976,18,10,-5,2,0,-2,-1,18
11182976,7,3,7,4,0,0,0,-21
11189971,-3,-2,24,18,7,1,-4,3
11189971,-6,11,-13,1,1,0,2,8
11206976,6,-8,3,-11,-5,-1,-4,-13
11206976,-30,-6,-21,-5,-4,-1,1,10
11208972,11,-4,-1,-1,-2,-3,-2,-6
11208972,-13,-15,6,5,2,-1,3,16
11219973,-8,2,1,14,8,3,1,7
11219973,38,3,-8,-11,-7,-4,-5,-19
11228935,8,2,-38,-6,-3,1,2,6
11228935,-15,5,32,-6,-3,-4,-6,-16
11242973,16,-1,13,14,5,1,13,8
11242973,-8,-4,-13,-6,-5,-4,2,17
11249707,-14,4,0,-9,-5,-3,-5,0
11249707,16,-6,-7,0,1,0,1,-9
11266997,-4,2,-3,-1,0,-1,-5,2
11266997,-7,-9,9,8,2,1,0,0
11268848,-8,-2,4,-1,-2,0,3,-4
11268848,-3,0,-14,-2,-3,-1,-3,-3
11279848,-21,-10,-6,-8,-5,-4,-6,1
11279848,11,2,-5,-9,-7,-3,0,1
11288850,-6,-5,11,0,0,-1,-5,-3
11288850,17,10,12,3,-2,0,0,-5
11303074,-6,5,-7,3,1,1,-4,-3
11303074,-47,-12,6,0,1,1,0,1
11310073,2,5,-3,-5,-4,0,-4,-4
11310073,-4,-9,2,5,4,1,7,3
11327072,-2,-6,-11,-6,-6,-3,-6,-11
11327072,19,-5,10,1,1,-1,-1,3
11329136,2,12,-5,-1,0,-4,-8,-6
11329136,-15,-29,-11,-7,-5,-3,-22,-9
11339853,-5,13,1,-3,-1,0,29,5
11339853,11,3,4,1,0,-1,6,-8
11348854,1,4,-1,0,0,0,-7,-7
11348854,-24,-1,-4,-4,-4,-3,3,-1
11362865,-7,-8,-3,-4,-4,-2,-7,-12
11362865,15,11,3,0,0,0,-5,3
11369874,-9,-7,-1,-3,-1,-2,-12,-48
11369874,0,2,0,-2,-1,0,27,23
11385993,-9,-6,1,-4,-3,-3,-9,-11
11385993,6,7,-27,-4,-1,-1,5,19
11393001,3,-23,-17,-2,-5,-4,-10,16
11393001,4,8,10,1,2,-2,-13,-15
11399998,9,4,-4,-2,0,0,6,-9
11399998,-17,0,7,2,-1,-1,-5,2
11409002,6,-20,-8,-6,-3,0,3,2
11409002,-7,4,16,3,-1,-2,-9,-12
11422874,15,0,-21,-5,-2,0,-6,20
11422874,5,-8,-10,-2,-3,-2,-5,-11
11428874,-13,8,8,1,0,0,4,7
11428874,0,12,-3,-3,-1,-1,6,1
11445991,-9,-10,8,2,0,-1,-9,-1
11445991,4,-11,2,-1,-1,-1,-2,-15
11452952,-3,4,8,-1,-2,-2,8,5
11452952,14,-1,-13,-1,-1,-1,-1,4
11459997,-7,7,-1,0,-1,-1,-3,1
11459997,2,2,0,-3,-4,-2,-5,-6
11468119,2,-11,0,-3,-2,-2,-1,15
11468119,3,4,-2,0,1,3,8,-4
11482282,17,3,3,0,2,1,-5,9
11482282,-71,-7,4,2,1,0,4,-13
11489332,16,1,8,0,-1,-2,-27,-15
11489332,12,-1,-2,5,2,1,8,40
11506122,-19,0,-12,-13,-11,-3,46,-18
11506122,28,-1,-2,-3,-1,-3,-2,20
11513124,-13,7,-3,-2,0,-1,3,-8
11513124,-6,-8,-7,-1,0,-1,-16,-9
11520122,-5,-1,-5,3,2,-1,-16,6
11520122,10,3,2,0,-1,0,1,-7
11528124,-9,-10,3,0,-3,0,11,2
11528124,8,-8,-11,-3,-2,-3,-1,-3
11543124,-6,6,17,1,-1,0,-7,4
11543124,16,-1,12,0,-1,-2,-4,-14
11549126,-22,2,-6,2,0,0,-6,16
11549126,-10,0,-4,-6,-2,0,3,5
11565850,20,4,-1,-1,0,-1,0,-21
11565850,1,-4,2,4,2,1,10,15
11572402,6,3,-1,-2,-2,0,2,-5
11572402,2,2,-1,-3,-4,-4,-14,-10
11588351,-7,-11,14,0,-2,-3,9,7
11588351,6,6,-4,1,1,-1,-11,0
11590140,1,1,0,-5,-1,-1,1,0
11590140,-10,5,1,-1,-3,-1,13,-31
11602355,18,4,8,2,1,-1,-19,11
11602355,4,-2,-2,-3,-1,1,1,-5
11609356,-5,-10,-5,0,0,-1,-3,-3
11609356,11,-3,10,-3,-4,-2,-8,9
11626142,-12,-4,-15,0,2,1,-7,1
11626142,-4,-10,-17,-3,-3,-3,-1,-14
11632463,-5,7,-1,-3,-2,-2,5,-5
11632463,4,8,9,1,2,1,-1,6
11648157,6,-12,-4,0,-1,0,0,-18
11648157,-13,12,10,1,1,0,-1,5
11650653,2,-4,-2,-3,-3,-1,1,-4
11650653,-1,-11,-9,-2,-2,-4,-3,-2
11663153,-2,-2,-1,-3,-3,-3,-10,10
11663153,16,3,-12,-1,0,-3,-7,-6
11669997,7,2,10,2,1,2,-7,-3
11669997,-5,1,-2,1,-1,0,12,-1
11685995,-14,-6,-5,-2,-1,0,-5,3
11685995,4,-6,-2,-2,0,-1,-1,-6
11692998,-13,-1,2,-2,-2,-1,-3,4
11692998,-13,1,-8,-1,-2,-1,-21,-10
11708706,13,2,0,-3,-2,-1,27,16
11708706,24,-1,0,-4,-3,-4,-20,-1
11710700,8,12,-3,0,-3,1,39,9
11710700,5,-4,1,-1,1,-1,-19,4
11722700,-14,-22,-2,-1,-2,0,11,-8
11722700,9,6,3,2,-2,0,-3,-3
11729666,6,-5,2,1,-1,-1,-8,1
11729666,-26,-4,-5,-3,-2,-1,7,-7
11746002,4,4,9,-2,-2,-3,-16,-5
11746002,6,6,-7,0,-2,0,4,17
11752722,-6,2,2,1,-1,-2,0,-14
11752722,4,-8,-27,-2,-2,0,8,6
11768987,-8,-10,0,-1,-1,-2,-14,-5
11768987,-17,-1,12,-1,-1,0,3,2
11770985,-19,-8,-8,0,-1,-3,-20,6
11770985,21,14,11,1,-1,0,-1,-3
11782982,-9,0,-10,-5,-5,-2,-10,-6
11782982,-3,-10,-4,-6,-4,-3,2,-23
11789988,3,-1,7,-2,0,-3,4,31
11789988,-1,-2,-2,-3,0,-3,3,-27
11806056,2,13,2,2,1,0,-19,7
11806056,0,-4,4,0,0,3,12,8
11812927,9,9,8,4,1,1,0,2
11812927,-9,-9,2,-4,-5,-6,-8,-4
11828928,4,5,-8,-6,-3,-3,2,1
11828928,-3,-9,3,0,-1,-3,-5,-2
11830928,4,0,2,6,3,0,-2,-13
11830928,10,6,-4,3,3,3,3,8
11843101,-3,0,-9,-7,-6,-2,-7,-3
11843101,-6,5,-3,-2,-2,-3,-9,3
11851562,2,-14,-8,-5,-3,-1,1,1
11851562,-3,-6,9,2,1,0,3,1
11866063,-17,0,2,2,2,-1,-2,6
11866063,4,-8,9,-2,-3,-2,3,-6
11872404,-5,8,-30,-4,-3,-2,3,-12
11872404,7,-2,2,-2,0,0,7,0
11889072,-19,-10,-8,-1,-2,-3,3,-4
11889072,4,4,2,2,-1,0,-6,9
11890073,-4,14,1,-5,-2,-3,-7,-15
11890073,-8,-26,-7,-3,-2,0,1,-11
11903073,-9,-1,-1,0,-1,-5,-2,12
11903073,16,6,3,2,3,0,-4,-9
11911074,8,-9,-3,-5,-3,-2,-1,10
11911074,-1,13,4,4,0,1,0,-5
11925082,22,2,4,2,2,0,-1,-9
11925082,-4,-12,-9,-6,-2,-2,3,5
11932076,-8,-8,1,-4,-3,-2,-2,-8
11932076,15,4,2,0,0,-1,-4,-14
11948077,6,-5,-1,3,0,-1,1,9
11948077,-12,5,-3,0,-1,0,-1,-3
11950077,0,-3,-3,-4,-3,0,-10,6
11950077,-6,-7,-3,-3,-1,-3,18,7
11963087,-3,15,4,-2,-2,0,-3,-12
11963087,-3,-7,-8,0,0,-1,0,2
11971093,-11,-12,-14,1,-1,-4,-3,5
11971093,1,4,4,0,-1,1,-22,4
11986094,-1,0,0,-2,-2,-1,3,-6
11986094,7,-6,-19,-1,-4,0,4,-1
11993094,-27,1,11,3,-1,-2,-9,-1
11993094,3,0,-9,-3,-1,-2,3,15
12009095,19,-12,2,-1,-1,-1,-5,-28
12009095,3,14,3,1,-1,-3,-5,19
12010096,0,4,2,1,2,2,6,-8
12010096,-8,-17,-5,-2,-5,-2,-12,1
12022138,0,5,3,-2,-3,-2,1,8
12022138,-8,-6,-2,-3,0,-2,1,-17
12031098,-5,7,3,1,0,-1,1,7
12031098,-1,0,10,1,1,-1,1,1
12046108,4,-5,-7,-3,-1,-1,5,-3
12046108,-15,0,15,3,-1,-2,-2,-20
12052657,2,1,-1,0,-1,0,-11,11
12052657,13,-8,-7,-2,-1,2,29,-1
12068777,-21,2,-3,-2,-1,-3,-4,4
12068777,-7,0,4,2,1,-1,-15,-2
12070495,16,-7,2,-4,-3,-2,2,-10
12070495,-7,7,1,1,0,-3,-10,4
12082649,-12,-9,-3,1,1,2,6,6
12082649,21,9,1,-4,-1,-2,1,-7
12091497,-38,-10,-1,-1,-1,-1,5,3
12091497,-7,-4,-4,-3,-1,-1,-11,-4
12105503,12,20,3,3,2,1,6,-10
12105503,-11,-16,-7,-5,-3,-3,-11,-3
12112796,13,-2,-5,-1,1,0,4,-5
12112796,0,7,0,-1,-3,-3,8,6
12128505,-16,-8,-8,-4,-2,-2,-9,5
12128505,-1,-1,-9,-1,-2,-1,6,0
12130501,5,-9,6,-7,-4,-5,-2,-18
12130501,-9,4,5,1,2,1,-3,16
12142802,1,-1,-5,2,-1,0,3,-13
12142802,5,0,-1,0,-2,0,0,8
12151500,-1,-5,-5,-2,-3,-2,-2,-8
12151500,-23,1,9,1,-1,-1,-3,-6
12165815,4,3,-5,-5,-3,-2,25,12
12165815,-15,-10,-2,-6,-1,-1,-5,-11
12172821,7,6,6,3,1,0,2,4
12172821,5,-18,-15,-7,-2,-2,-9,-4
12188818,1,-7,2,-2,-2,-2,-8,4
12188818,-12,23,3,1,-2,-2,1,15
12190517,21,0,-5,-2,-3,-3,1,-19
12190517,16,-7,-5,-3,-2,-2,-4,-9
12202810,-58,-13,-2,-1,-1,-1,-2,2
12202810,7,-2,11,-3,-3,-1,-2,-3
12211519,2,-3,-21,3,3,1,0,-9
12211519,-2,22,15,0,-1,-2,4,6
12225521,6,8,4,-1,0,-2,-9,-4
12225521,-3,-20,-6,0,1,-2,-2,2
12232521,7,0,3,-3,-1,1,10,9
12232521,-17,-4,0,-4,-4,-4,-12,-11
12248521,10,6,-13,-1,-1,0,-14,8
12248521,-3,0,-7,-3,-2,0,7,-7
12250521,14,-7,8,-2,-3,-2,-5,-12
12250521,-4,1,-6,3,3,0,-5,-4
12262678,8,-7,-1,-3,-4,-3,-21,1
12262678,-8,-6,-4,-2,-3,-1,9,0
12271386,-5,-6,-7,-4,0,-1,-4,12
12271386,-6,5,0,-1,-3,-1,-5,-13
12285687,3,-3,3,3,2,0,2,-4
12285687,5,5,-8,0,-1,-3,-14,-3
12292687,-9,-3,4,2,1,2,0,12
12292687,-2,-8,-9,-4,-3,-2,-3,-5
12307675,10,7,4,-3,0,0,-2,-3
12307675,14,-11,1,0,-1,-1,0,4
12314391,-33,9,-2,-7,-4,-5,-17,-5
12314391,3,-9,-3,-1,-1,-2,13,18
12331390,6,0,-6,2,0,1,-3,-13
12331390,4,25,6,1,-1,1,3,9
12333390,6,-23,18,2,0,-1,2,-8
12333390,2,-1,-16,-4,-3,-1,-9,-5
12345690,-4,-8,0,-3,-4,-5,-4,-4
12345690,-8,3,-1,2,0,-1,5,-3
12352397,9,18,18,2,1,0,-1,9
12352397,-1,-4,-2,-1,-3,-1,0,-11
12367627,-2,0,0,-1,0,-1,-2,15
12367627,-6,-1,-8,0,0,0,-4,-8
12374893,11,-5,-15,-5,-5,-4,6,0
12374893,1,3,11,4,2,-1,-16,1
12382640,8,-1,-7,1,0,0,27,-1
12382640,-18,-10,-6,-1,-1,-2,-6,-4
12391865,8,-9,-8,-2,-2,-1,6,-1
12391865,-3,-3,-2,-2,-3,0,4,1
12405969,2,8,0,-2,-1,-1,1,-1
12405969,19,-8,3,-1,-2,-3,-7,-1
12412970,-57,-6,-2,0,-1,1,-8,4
12412970,6,13,4,0,-1,-1,-5,-5
12427642,2,-6,-5,-4,-4,-2,-7,-1
12427642,-5,-17,-25,-3,-3,-2,3,-15
12434970,8,13,-6,-1,0,-1,-6,12
12434970,1,-15,-6,-1,0,-2,3,1
12442966,-12,-2,12,1,-1,-1,-14,-6
12442966,1,8,5,-4,-3,-1,0,0
12451652,14,0,-3,1,1,-1,2,3
12451652,-5,-5,5,0,-3,-3,0,-2
12465662,6,-4,-4,-5,1,-2,-4,-4
12465662,-16,-2,-2,-4,-3,-2,6,12
12473012,-6,-7,-8,-1,-2,-2,2,-13
12473012,6,9,11,3,2,0,5,7
12487973,2,6,-3,-2,-1,-1,0,-2
12487973,7,-9,1,-2,-3,-3,-16,-7
12495015,-4,0,6,0,-2,-2,17,-1
12495015,1,-9,-29,-5,-4,-3,7,2
12512012,9,4,6,3,1,0,-23,4
12512012,-36,-2,11,0,0,-1,13,-5
12513698,14,-4,-22,-1,-1,-1,-4,14
12513698,-8,-8,1,-1,-2,-6,-13,-12
12525681,-20,-3,4,2,1,-1,6,-6
12525681,11,10,2,1,0,-2,-8,18
12532674,19,1,6,-1,-2,-2,-2,-19
12532674,-24,3,0,0,-1,1,-1,0
12547676,-6,-8,-8,-1,-4,-3,3,2
12547676,15,-13,7,-2,0,-1,-7,-16
12554484,-9,25,6,-1,-1,1,9,14
12554484,11,-17,-7,-6,-1,0,-3,-4
12571996,1,-10,-1,-1,-1,-2,6,-8
12571996,-9,-1,-6,-1,-1,-1,-6,7
12572886,-3,5,2,-1,-2,-1,-7,-5
12572886,12,10,1,1,1,1,-13,-16
12586041,-5,-16,5,-1,-2,-2,3,2
12586041,4,8,-2,0,-2,-1,11,-6
12592992,18,10,-3,-1,1,-1,-15,6
12592992,-10,-2,21,0,-3,-3,-5,-2
12607992,14,-1,-8,-3,-1,-1,2,-6
12607992,-7,-4,6,-1,0,1,0,-3
12614888,-1,-11,-9,-1,-1,0,0,-3
12614888,4,3,5,-4,-2,-1,7,1
12631889,-27,11,-3,-2,-3,-2,-3,-3
12631889,12,-10,-4,-1,-1,0,-5,-3
12632890,8,4,10,0,-1,-2,16,-9
12632890,-9,2,-5,-1,0,0,2,-4
12645950,0,-12,0,-1,-1,-2,-18,3
12645950,-6,12,-4,0,-1,0,17,3
12652883,-10,-19,-4,-4,-4,-4,0,-1
12652883,-7,3,-7,-3,-3,-2,-5,-6
12676946,1,8,1,1,0,-1,2,1
12676946,18,-5,-2,-3,0,-1,23,-2
12678911,-17,-1,-6,-2,-1,-1,-19,-12
12678911,6,1,-4,-2,1,0,13,-2
12691949,-5,-5,3,0,-2,-1,-9,-1
12691949,16,-13,0,-3,-2,-4,-9,-2
12692947,5,5,0,0,-1,-1,-4,-1
12692947,3,6,-3,-1,-1,0,1,7
12706017,-7,-6,0,-1,-3,-2,4,3
12706017,12,10,2,0,-2,-2,-7,-18
12711853,-7,-1,-23,-5,-2,-2,0,-2
12711853,-13,-18,-6,-1,0,-2,-16,5
12727971,9,8,8,2,3,1,16,-2
12727971,-10,-5,-12,-4,-2,-2,0,19
12734854,-23,9,22,0,1,0,-8,-6
12734854,1,-3,-1,0,0,-1,8,0
12751855,-1,2,-9,-5,-1,-1,0,-19
12751855,-6,-1,-3,-3,-2,0,-10,1
12753362,-9,-6,-5,-3,-2,-3,-4,0
12753362,-4,5,1,1,-2,-2,-10,3
12765924,13,-16,7,0,1,4,47,6
12765924,-20,11,-24,0,-1,-2,-12,0
12772349,10,-13,-10,-5,-3,0,6,-4
12772349,-7,-9,26,4,0,-2,-11,2
12787305,1,10,-4,-1,-1,-3,-11,1
12787305,-5,-6,-2,1,0,-1,-3,-3
12794304,0,-2,22,1,0,-2,0,0
12794304,17,13,-29,-4,-1,-1,0,-2
12811358,-51,-4,-1,-1,1,-1,-16,14
12811358,-13,-15,11,1,1,2,26,-14
12813124,7,20,5,-1,-3,-2,-8,0
12813124,1,-14,0,0,-2,0,12,-14
12825091,16,-7,-2,-4,-4,-1,-7,17
12825091,-14,11,-2,-2,1,-1,-19,-2
12832105,2,-14,-1,1,0,1,16,-2
12832105,-5,12,-1,-2,-1,0,-7,-2
12847092,3,12,8,0,0,-1,-1,-8
12847092,-4,-21,-3,-3,-3,-3,-11,-3
12854618,-1,-13,-3,-1,-2,-3,-6,9
12854618,5,17,-4,-2,0,-1,15,5
12871960,-13,-19,2,1,-1,0,-5,-21
12871960,19,5,6,-1,-1,0,1,10
12873626,-10,4,-6,-1,-3,-2,-11,-5
12873626,1,-20,-8,-5,-4,-2,-2,-7
12885958,-12,3,-1,-1,-4,-5,-6,7
12885958,6,0,-2,-1,-1,1,10,-1
12892958,0,0,-5,-3,-1,1,-16,-6
12892958,-8,6,-1,-3,-3,-2,-8,11
12907926,-4,-6,-5,-4,-1,0,26,-8
12907926,-4,1,-1,0,-2,-3,-20,-8
12914629,8,1,4,-2,-3,-1,-2,7
12914629,-9,-1,-3,-1,2,0,30,-4
12931630,15,-6,6,-4,-3,-3,-19,-2
12931630,-10,10,-4,0,2,2,2,3
12933630,14,6,2,0,1,-3,2,-7
12933630,8,-16,1,0,-3,-2,-5,15
