timestamp,emg1,emg2,emg3,emg4,emg5,emg6,emg7,emg8
182050,1,-6,7,1,-2,-3,-2,-1
182050,3,-3,9,0,-4,0,-8,1
183050,-3,-7,6,7,0,-1,5,-5
183050,0,1,1,-40,-7,-3,-4,-3
184050,-3,2,12,5,-1,-2,-1,-4
184050,-3,-12,-13,-2,-1,-2,-10,-4
185050,14,4,8,4,0,-2,-2,2
185050,0,5,18,35,5,2,4,-1
196049,-18,-10,-33,-23,-7,0,2,6
196049,-2,14,1,-5,1,1,1,-10
211345,4,-9,-8,4,-2,-1,-6,-1
211345,-2,-2,-10,-1,-1,-2,0,0
212047,-6,2,-10,3,3,0,22,-2
212047,6,0,-5,2,-3,0,1,2
227048,1,1,-8,-9,-1,-1,-5,0
227048,-13,-10,-5,3,-6,-3,-3,-3
235297,4,-6,4,-13,3,2,-7,-2
235297,-15,9,-2,16,1,1,-4,-2
240061,1,0,6,-23,-11,-3,-6,-4
240061,-3,-1,-12,-28,-2,0,11,1
265278,3,-14,-11,30,1,-1,-6,-3
265278,8,4,4,-2,5,0,3,7
268278,-20,-13,3,0,0,-2,-11,-3
268278,11,10,-4,5,-5,2,-2,4
294280,-6,-7,-3,9,0,-1,-5,-6
294280,-1,-5,13,-15,-3,-2,5,4
301280,-2,0,-6,-3,1,-1,12,1
301280,-2,-2,1,5,-2,-1,-2,-4
302280,-1,9,-9,-4,0,1,-5,1
302280,-10,-4,2,7,-1,0,9,-6
303280,9,8,7,-2,0,-2,-5,2
303280,-4,-9,-9,-12,-6,-3,-1,1
316281,11,-4,2,1,-1,-3,-2,-4
316281,-8,-1,2,18,1,0,-7,-2
322469,-5,2,-6,28,0,1,1,0
322469,-1,-6,-21,-45,0,-2,-2,0
330287,2,12,15,20,-3,-2,3,-6
330287,7,-6,-8,-33,-2,-2,-5,-6
345300,-6,-1,-16,8,0,1,-1,1
345300,4,0,16,23,1,-3,-3,-2
361472,-5,-1,9,-4,2,2,0,-2
361472,1,4,-1,10,4,2,-2,-1
363466,2,5,5,-8,-8,-6,-6,-5
363466,-1,2,8,5,-1,0,-1,5
376470,-3,-8,-9,-11,1,0,9,1
376470,-6,3,-1,8,1,-1,-1,-1
382468,-2,-16,-11,-20,-1,-1,-16,-3
382468,4,3,12,4,-4,-3,1,-3
390473,-1,-1,-4,-3,-3,-3,8,1
390473,7,1,-3,0,1,0,-4,1
405463,-4,-4,2,-13,-8,-4,-1,-3
405463,8,-14,-17,15,6,2,-11,2
412463,-12,-13,13,-15,-2,-4,-12,-2
412463,-6,2,-14,-8,-8,0,2,-1
422304,6,1,18,28,4,-2,-2,-6
422304,0,17,-41,-31,-3,0,5,-6
436327,-1,-13,-2,7,-1,-2,-1,0
436327,1,1,23,6,1,-3,-2,1
442430,-2,-3,-15,-7,-5,-2,0,-1
442430,-5,6,24,27,1,-3,1,-2
450549,-5,0,-10,3,-1,0,0,-3
450549,1,-9,-20,-20,-2,1,-6,-2
465552,-7,1,-10,-2,-2,-3,2,0
465552,-12,9,16,-8,1,3,7,-2
473552,19,-3,-8,-7,-3,-3,-6,-2
473552,13,-6,11,0,-5,-3,-2,-4
486554,-15,-1,7,-1,3,1,-3,2
486554,-3,-14,0,4,0,-1,-4,1
495589,-3,9,-2,2,-6,-1,9,3
495589,-4,5,11,24,-1,-1,15,4
502554,2,-9,-11,-36,0,0,1,0
502554,0,5,1,1,0,-1,-11,-6
510554,-6,1,17,8,-2,-4,-14,-3
510554,-3,-12,-13,1,-1,0,-2,3
524561,8,2,1,-1,1,1,-2,-5
524561,-4,9,9,0,-1,-3,2,-1
533384,1,4,-16,-2,8,1,-2,-1
533384,-5,-11,-6,-12,-13,-5,-6,-6
540129,4,0,4,-6,-4,-1,1,1
540129,2,-1,7,14,-1,-1,-3,-4
555595,-3,-7,-13,-34,-5,1,4,2
555595,2,10,-2,3,4,-2,-6,-3
561590,-9,-17,1,5,1,0,0,4
561590,16,5,12,-2,-3,1,4,-4
569589,-6,1,3,1,-1,1,3,-2
569589,-5,1,29,-7,0,0,-1,-1
585589,2,4,-14,4,0,-1,0,0
585589,-6,-5,-9,-5,1,-2,1,-1
592808,1,-4,-3,13,2,2,-4,2
592808,3,4,-8,-3,-2,2,-9,-1
599596,-5,6,16,1,-1,-1,8,-6
599596,-3,-14,-4,1,-6,-3,-2,2
615854,1,4,-4,-8,-2,-3,-4,-2
615854,4,5,-5,-1,1,1,7,-4
621804,-18,-22,-10,4,2,-1,-10,4
621804,-3,0,-14,-4,0,0,13,3
630435,5,-15,2,12,1,1,0,0
630435,0,1,-25,-27,-1,-1,-1,-3
645668,7,16,9,4,-3,-2,-3,-3
645668,2,-2,-4,-14,-3,-3,-4,3
652669,-6,12,3,16,2,-2,-1,1
652669,-12,-4,-1,11,-2,0,1,-2
667670,11,-1,-7,-8,0,1,-1,-4
667670,-12,-11,-8,-5,0,-2,-5,-1
676035,-1,1,2,-12,-13,-2,1,-2
676035,1,-1,-8,1,-1,-3,-3,2
681957,1,1,6,28,-3,-3,-2,-4
681957,-2,-1,-8,-30,4,0,-1,-3
689975,1,-5,-4,-11,-3,0,0,-1
689975,-4,-3,3,2,0,-5,-3,-2
704673,-1,-5,0,-10,-3,-2,-1,0
704673,3,-1,19,19,-2,-2,-1,1
711957,-13,-6,-45,-15,-5,-1,-1,-4
711957,-1,6,17,14,1,-2,-3,4
726680,0,3,-7,-2,-1,-2,2,-6
726680,-3,-9,-10,2,-1,-1,-3,-2
736196,0,3,15,-14,-2,1,-1,2
736196,1,-9,-5,3,-1,-2,-2,2
742492,-1,2,7,-5,-2,-2,-3,-2
742492,-2,1,-4,-3,-3,-2,-5,-2
750098,-7,0,7,6,4,-2,-1,-9
750098,6,-4,-6,0,-1,-2,1,-1
765035,8,1,3,-17,-11,-2,-16,8
765035,-1,-2,-2,4,-1,0,13,-4
781071,1,1,3,9,2,-1,-3,0
781071,-2,1,0,2,3,2,1,-1
786706,15,-5,-5,20,1,0,-9,-3
786706,-10,3,-7,-23,-4,-1,-6,3
796067,0,-1,7,0,0,-5,-2,-1
796067,0,-3,-13,-21,-5,-1,-3,-4
801706,-4,14,11,15,3,1,6,-2
801706,2,-19,9,8,-2,-1,-2,0
809707,4,-1,4,-4,0,-2,0,-4
809707,-9,3,-10,-6,-3,-3,-3,-3
824713,-6,2,15,-4,5,0,5,2
824713,-4,14,-22,2,5,1,-2,-4
832035,-11,-11,5,-3,-11,-2,-4,0
832035,15,-6,-25,4,1,-3,-1,-3
847489,-9,-8,-11,-10,-1,1,3,0
847489,-6,5,16,3,-5,-6,-7,-8
856526,1,18,-3,-6,0,1,-1,3
856526,7,-6,2,0,-5,-1,-1,-4
862487,-12,-9,-15,-6,-1,-2,0,-7
862487,2,-1,0,0,3,-1,6,0
870329,-1,-1,1,4,-1,-2,-16,-1
870329,-3,6,8,-5,0,-1,-2,-3
885492,-6,-5,8,7,2,0,10,3
885492,8,-14,-7,-10,-7,-1,-4,-9
892489,-6,-2,-1,5,0,1,-9,0
892489,-7,1,0,-4,-3,-1,8,-1
907332,3,6,-7,-5,-1,0,-2,1
907332,1,5,30,23,0,-2,-3,1
916449,3,-7,-24,-21,2,-1,1,-2
916449,-11,5,17,-6,0,-2,-9,4
922332,6,-9,6,-1,-2,-1,1,-5
922332,0,1,-9,6,3,1,-3,2
938353,-10,-7,12,5,-6,-3,0,-1
938353,-7,-10,-30,-13,-6,0,2,4
945153,-4,16,10,6,4,-2,-5,-7
945153,-8,2,-3,-4,1,1,-3,1
952443,10,-8,-2,-16,-1,-1,4,1
952443,-1,-7,7,24,-1,-3,-18,-4
967486,-3,-3,-22,-20,-4,1,9,2
967486,-2,11,-14,-4,-1,-1,-4,-1
976519,-2,-4,0,1,0,-1,5,-1
976519,-4,-4,-4,-13,0,-4,-6,-2
982479,1,-5,-2,-10,-7,-2,-2,-1
982479,1,1,4,2,-1,-2,-3,1
998370,1,4,9,1,-3,-1,3,0
998370,1,-2,7,1,6,0,2,-2
1005365,-1,-7,8,8,4,-3,-3,0
1005365,-3,-5,-14,-12,-6,-1,-10,2
1020366,-5,-3,5,9,-2,-4,12,-11
1020366,-2,2,5,3,1,1,-5,-2
1026365,5,-4,6,-5,-1,-2,-5,0
1026365,-7,-14,-11,-3,-2,0,3,-2
1035887,0,7,2,2,2,-1,-6,-5
1035887,10,22,9,4,-1,-2,-1,8
1041892,-9,-18,-7,-7,-4,0,-12,-9
1041892,-8,-27,-3,-3,-5,-1,24,9
1057944,3,4,-4,9,2,1,-1,1
1057944,0,3,0,-9,-4,0,6,-1
1064905,0,10,-4,-5,-4,-3,-11,0
1064905,0,1,6,2,-2,-2,-7,-5
1071906,0,-7,-11,0,1,2,4,2
1071906,-1,-1,0,6,2,0,5,-6
1088906,-1,-2,-6,-9,-4,-2,4,7
1088906,1,1,0,3,1,-2,-11,-5
1095907,-3,-2,1,1,-6,-2,-2,0
1095907,-3,-1,-12,-6,1,0,-3,-2
1101907,-3,-6,-4,0,1,0,-5,-1
1101907,4,4,-10,-11,-1,0,8,-2
1117907,-4,-18,5,14,-1,-2,-16,-2
1117907,-8,1,24,3,-1,-2,3,1
1124943,-6,-7,5,0,0,-1,2,-4
1124943,-1,11,0,-1,0,0,-7,-2
1131921,16,-4,-4,-4,2,0,0,3
1131921,-3,-6,-12,-3,-4,1,5,-4
1146928,1,2,-1,1,-1,-2,-13,-2
1146928,1,-2,3,1,0,-1,-2,1
1155929,-7,2,0,-4,0,-1,2,-3
1155929,1,-6,-4,-8,-9,-4,2,-2
1161929,5,5,-1,6,4,-1,0,0
1161929,-7,-4,-1,-6,-9,-2,-22,-3
1177931,4,5,-9,-10,-3,-2,10,-6
1177931,-11,-8,-6,7,-1,-1,-8,11
1184931,8,-1,17,-4,-3,-2,6,-4
1184931,0,13,-1,2,3,2,18,5
1191931,-6,-1,-8,-7,-1,1,-6,-2
1191931,1,-10,28,-1,0,0,-4,-6
1206937,-9,-8,-1,2,-1,-3,-5,-2
1206937,2,-2,-2,-3,-4,-4,-7,-4
1215935,12,6,1,1,1,1,-1,8
1215935,-6,6,-5,-3,-3,-3,0,-4
1221934,-4,-18,-12,-7,0,-1,5,1
1221934,0,2,3,-3,-4,1,3,-2
1238154,-6,-6,-9,3,0,-3,-2,-3
1238154,1,0,-9,6,5,-1,0,6
1245154,-4,9,-5,-3,-3,-1,8,-4
1245154,-1,-2,-6,-8,-5,-2,-3,-3
1252361,-3,1,4,1,-1,-2,-6,4
1252361,1,-13,3,-4,-6,-1,1,-3
1267367,-4,9,-3,-1,3,0,4,-3
1267367,-1,-8,9,8,4,-1,-16,-2
1276371,-11,10,1,-1,0,0,30,0
1276371,-9,-11,-10,-4,-8,-2,2,-5
1290410,7,-2,-6,9,6,4,-2,7
1290410,-1,-2,-15,-5,-3,-3,-2,-7
1298167,2,11,9,-4,-5,-3,-11,2
1298167,-5,-5,-41,-10,0,-1,-4,-10
1313409,-14,-8,-14,35,4,-1,-3,-8
1313409,3,-2,-3,-40,-2,-3,15,7
1314408,5,-7,-5,-1,-14,-1,-3,0
1314408,-12,14,1,1,5,0,-1,1
1327169,1,7,1,-7,-2,-2,-1,2
1327169,10,1,7,26,3,-1,-17,-4
1336178,1,-6,-2,-32,-7,0,-2,0
1336178,1,-6,-1,3,-7,-2,-1,-8
1350097,7,4,-5,19,12,-1,0,5
1350097,-12,0,11,22,4,0,-2,-1
1358097,-3,-1,-1,-18,0,-1,-15,-6
1358097,13,4,3,10,1,-1,7,6
1373101,-10,-10,-4,8,6,-3,-3,-10
1373101,11,-8,-4,-34,-22,-1,0,-1
1374099,-11,3,-3,36,9,-4,-5,0
1374099,0,-1,8,-13,10,4,-4,2
1386894,0,-11,-4,-23,-14,-4,0,11
1386894,38,33,54,12,-8,-1,-4,-9
1396090,-33,-6,-2,-15,-5,-5,-8,-1
1396090,-31,-5,4,23,7,-1,6,-6
1409889,14,-2,1,-35,2,1,7,10
1409889,-4,-1,-4,26,12,-1,8,6
1417894,2,-4,-1,-22,-9,0,-9,-15
1417894,13,15,-9,13,3,-1,-8,3
1433306,-9,2,5,-19,-9,-2,-18,-10
1433306,-11,-4,-10,21,5,-1,3,-3
1434308,5,-24,-3,19,13,3,21,13
1434308,-3,3,-11,-16,-9,-1,-4,-6
1447172,11,13,1,-15,-15,-8,-8,-13
1447172,-16,-15,-14,-12,3,-1,-20,-2
1463277,17,18,8,20,13,3,11,4
1463277,20,-11,6,-13,-12,1,-8,-3
1469890,-38,16,6,0,-3,-1,11,-4
1469890,21,-19,-77,-9,-5,-8,-30,5
1478223,-17,5,15,6,-2,4,61,9
1478223,7,-7,2,-2,5,-3,-7,2
1493221,5,6,-1,8,0,2,-5,-3
1493221,-12,-3,-4,-12,-3,-2,-2,-7
1493891,5,-3,10,3,1,0,-14,-4
1493891,7,8,-11,-6,-5,-1,-5,1
1507177,-2,-18,-5,2,-1,1,33,5
1507177,-7,0,19,1,3,2,5,1
1515899,2,-6,-13,-7,-6,-6,-28,-3
1515899,-24,4,8,-6,-4,-1,31,-7
1529899,20,5,2,4,-2,-2,-22,-1
1529899,-6,0,30,-3,0,0,17,2
1538209,10,-13,-28,0,-1,-3,-17,-3
1538209,-8,5,0,-2,-1,-2,-12,-2
1552634,20,-15,-19,-2,-2,-4,-8,5
1552634,-27,3,5,-8,-8,-3,23,3
1553634,-6,3,-8,-3,0,0,-6,-11
1553634,23,-2,15,-2,-3,-3,1,7
1566922,0,0,-4,2,3,3,2,0
1566922,1,-1,-2,2,-1,-2,-7,-3
1575642,-1,-1,3,-4,-5,-3,-10,-4
1575642,-1,-8,-11,1,1,-2,-2,-2
1589637,-7,7,12,-2,-6,-2,-2,-2
1589637,-1,-14,-5,2,5,1,-11,1
1597637,-8,-8,-14,-7,-7,-3,2,-6
1597637,-3,-3,1,-2,-1,-1,-5,1
1612642,12,4,-8,-2,0,-3,-3,-3
1612642,-5,9,17,2,-1,1,2,-4
1613637,5,5,1,-1,2,0,0,0
1613637,-3,-5,-7,3,-5,-5,-5,-1
1626638,-10,-11,-4,-7,-1,1,0,-2
1626638,-1,3,23,17,1,-3,5,-1
1636144,1,-4,-32,-15,11,0,-5,-2
1636144,-3,0,0,-18,-27,-4,-2,2
1649660,-7,-5,14,3,17,2,1,-5
1649660,5,7,-3,0,-27,-1,3,1
1657665,-1,0,7,-31,-1,-3,-2,-2
1657665,-12,-3,0,17,10,-1,-6,-2
1672661,6,8,0,-7,-9,0,0,-2
1672661,4,-9,-24,-14,7,0,1,-1
1673661,-1,8,8,20,-5,-2,-8,-1
1673661,-1,-18,-8,-5,-2,-2,7,2
1686662,-11,2,17,2,3,0,-10,-3
1686662,-2,-19,-32,-3,5,-1,19,0
1695667,13,9,7,4,-6,-1,-5,1
1695667,-49,2,4,-3,9,3,0,0
1709663,-7,1,-12,13,-6,-4,1,1
1709663,16,12,2,-10,-2,-1,-8,-9
1717669,20,-3,6,1,-4,-3,-7,0
1717669,-1,-3,-11,2,-1,-2,-4,-10
1733174,1,-11,-2,-4,-4,-3,-13,7
1733174,-57,-2,-13,-4,-2,-2,5,-20
1734173,20,2,-16,1,-1,1,-13,1
1734173,16,8,10,3,5,-1,-11,-4
1747083,-10,-11,-4,-4,-6,-2,13,0
1747083,11,0,3,-4,0,-2,-23,5
1756076,-20,-1,4,19,8,-3,9,-2
1756076,11,2,9,-22,-11,-1,7,-1
1779182,6,16,8,5,-2,-4,-9,1
1779182,-2,-22,-12,1,0,0,4,-13
1779883,-19,-12,5,-2,-3,-3,-7,-5
1779883,7,9,-9,4,7,1,-8,4
1793186,11,-2,-8,-9,-7,-3,4,-1
1793186,8,8,13,2,1,-3,-5,5
1793883,0,-5,-4,-1,-4,-1,4,-2
1793883,9,-9,2,6,4,3,2,-2
1807170,-13,-1,1,0,-3,1,2,-3
1807170,0,-4,-2,-6,-1,-2,4,2
1815891,-13,1,13,1,-4,-2,-3,-1
1815891,5,-1,-3,8,-2,-4,4,2
1829927,-11,2,-9,22,9,0,-3,-4
1829927,11,6,-2,-35,-8,0,-1,2
1838158,0,-22,-2,-2,-7,-1,-7,5
1838158,-7,4,4,9,3,-3,-17,-4
1853163,2,1,-7,-9,-6,2,34,0
1853163,-3,-2,0,6,5,-2,-8,3
1854365,-3,8,-10,-1,3,1,7,-1
1854365,2,14,-7,-11,-9,-7,-21,-8
1867490,-6,-28,6,-2,2,1,-16,0
1867490,-5,0,-14,2,-1,-2,1,0
1875164,13,6,11,-1,-2,-3,-1,-2
1875164,-30,-5,-4,-1,1,0,0,3
1892165,-2,2,-2,-2,-3,-4,-3,-1
1892165,24,6,-7,4,-1,-1,8,3
1898189,-44,-4,-5,-3,-2,0,-4,-4
1898189,13,5,2,7,6,1,11,1
1913459,-7,5,6,-1,-3,0,-4,4
1913459,-9,-9,6,0,-2,-1,-5,0
1921168,18,-1,-5,-3,0,-2,-9,2
1921168,3,-6,-6,-9,-8,-3,-8,-2
1928193,-5,1,-6,2,1,-6,-2,-2
1928193,-4,3,2,-1,-1,1,23,3
1935192,0,-3,-1,0,-2,-1,21,2
1935192,0,-8,4,-3,1,7,8,-8
1950202,7,-3,-5,-5,-4,0,-15,-4
1950202,-5,1,1,4,4,-2,-6,-2
1958381,-3,1,6,-5,-4,-3,-8,-12
1958381,1,-10,-5,-1,0,-2,0,3
1973383,-4,-7,0,-1,-1,-1,5,-4
1973383,1,-6,-1,-2,-3,-1,-5,-2
1981388,-4,2,4,-2,1,0,2,-2
1981388,9,-2,-1,2,-1,-2,0,5
1987205,0,6,-3,-5,-1,1,-2,-3
1987205,-6,-11,-4,-5,-4,-5,-17,-2
1995452,3,-1,8,3,-5,-1,18,0
1995452,0,-2,-12,-5,0,-1,2,2
2010207,14,6,8,1,3,2,6,-1
2010207,-4,3,19,3,-4,3,19,1
2026490,0,-2,-30,-4,0,-1,-4,0
2026490,5,0,-5,-7,-8,0,1,-2
2032231,-8,-5,-3,-1,-1,-3,-2,-5
2032231,-11,-5,1,4,1,0,-2,-7
2041232,8,14,4,11,5,1,1,3
2041232,3,-11,7,-17,-2,-2,-5,-1
2056535,-10,-4,-15,4,-2,0,-15,-6
2056535,10,9,11,-4,-2,-1,1,0
2056535,-5,0,5,17,6,1,1,1
2056535,-3,4,-2,-2,-3,-3,2,-2
2069537,-6,-25,0,-9,-5,-1,-7,0
2069537,-3,0,-10,1,2,-2,-22,-1
2078537,3,-3,-6,-10,-2,0,11,2
2078537,0,5,25,7,3,-1,-6,-3
2092540,-11,12,-7,-4,-4,-3,0,-4
2092540,7,-11,-6,2,0,-1,-14,0
2100539,20,4,0,-7,-4,-1,-4,0
2100539,-27,-7,-16,2,-1,1,12,0
2115539,7,4,21,-1,-1,-2,-7,2
2115539,-3,3,-3,3,4,-2,3,-7
2116539,-9,-5,1,-14,-9,-4,-6,-4
2116539,7,-5,-12,-6,-1,0,5,1
2129759,-5,2,-3,13,2,-3,-6,-3
2129759,9,-5,-6,-4,0,1,-3,5
2138287,-2,-4,0,1,4,2,3,-2
2138287,0,-1,3,-10,-12,-4,-16,-5
2152762,-1,0,-3,-10,-1,1,6,10
2152762,3,2,4,-3,2,1,7,-7
2167764,-11,-13,-13,-6,-9,-3,-5,1
2167764,29,3,15,7,6,-1,-13,-2
2175832,-4,0,-21,-7,-4,0,2,-4
2175832,-1,6,-5,6,2,-3,-2,2
2176765,2,-7,3,-3,1,0,-9,-4
2176765,-11,-3,-15,-6,-3,-2,1,-1
2189800,12,6,-3,7,-1,-2,15,1
2189800,-5,-6,1,1,-3,2,-6,1
2197765,-7,-1,3,1,-2,-3,-11,-1
2197765,-6,-1,3,1,-1,-2,-4,2
2212809,23,-8,-3,-7,0,-1,0,-1
2212809,-14,0,-4,-8,-7,-5,-3,-5
2220802,-8,-6,2,-2,3,-1,1,-1
2220802,3,-2,-8,1,-4,-4,-6,-2
2236276,-9,17,8,-5,-2,1,1,0
2236276,-8,-10,-6,-2,-1,0,-1,-1
2236776,-1,-8,-11,2,-4,-3,-21,0
2236776,-4,-5,20,20,8,-2,11,-9
2249815,-7,-1,1,-16,-11,-2,-33,-5
2249815,2,9,6,8,6,4,29,10
2257783,-3,4,-6,-8,-1,1,11,-1
2257783,-9,-6,-8,0,-3,-1,-6,-2
2272784,1,1,2,2,1,-2,16,3
2272784,-6,3,0,3,-1,-3,-18,-6
2280815,-7,-6,8,2,-1,-1,-2,-2
2280815,-6,11,-13,-5,-2,0,17,5
2303813,6,-11,7,2,2,-5,0,-4
2303813,-1,3,-8,-4,-4,-2,-9,-2
2304785,-1,5,-11,-2,-3,-1,9,-1
2304785,-2,-23,-3,-5,-1,-1,-17,-2
2310033,-15,1,0,-3,2,0,17,1
2310033,6,4,-7,3,-2,-2,5,-1
2317992,3,-1,-2,-4,-2,-2,-14,0
2317992,4,-2,0,0,2,1,6,1
2332187,-1,-2,-5,-4,-5,-1,-10,-3
2332187,-5,-3,1,-10,-6,-5,-2,-1
2341202,-10,2,3,8,4,2,1,4
2341202,19,7,-5,0,-3,1,1,-8
2355937,-3,-8,2,2,5,1,-9,3
2355937,-1,-5,-4,-2,-4,-3,2,-1
2356947,-6,0,-3,-6,-6,-4,-10,-2
2356947,-5,-6,-1,-2,-1,-2,-3,2
2369693,-1,2,4,0,-2,0,13,-5
2369693,1,-6,-5,5,7,2,-3,-3
2377980,5,21,39,-2,-8,-5,1,-8
2377980,2,7,-27,-6,1,1,-23,3
2393061,-13,-15,-12,3,-2,-1,22,6
2393061,-9,-19,-5,-3,-3,-2,-7,-8
2400712,2,-4,3,4,4,-1,-3,0
2400712,-12,1,-2,-9,-7,-4,33,0
2415997,10,-2,1,1,-1,-4,-21,-3
2415997,-9,11,-14,-3,-1,-1,3,-6
2416696,-6,-6,10,-6,-2,-5,-2,-3
2416696,-5,-3,5,7,0,-1,0,-4
2430001,-3,1,-10,-1,-2,2,-7,-3
2430001,1,-1,9,-2,-3,-2,-7,3
2446466,2,-6,-13,-4,-3,0,13,2
2446466,5,-1,5,-1,1,-3,7,3
2452472,-3,5,5,1,0,-3,-9,-5
2452472,9,-14,-1,-4,-4,-3,-6,2
2460804,-28,-1,-15,38,13,0,-6,-4
2460804,21,-1,9,-26,-8,0,21,0
2475809,-7,0,-4,2,-1,-3,-25,3
2475809,9,13,0,-13,1,0,-5,-1
2476473,0,-12,-4,-11,-12,-2,17,2
2476473,-1,3,0,10,6,-2,-17,-7
2490475,-18,3,-9,-8,0,0,26,-1
2490475,-20,3,27,2,2,0,3,3
2497481,14,-21,-26,-4,2,4,-4,1
2497481,-9,1,19,2,0,-1,-11,2
2512477,0,0,0,1,-2,-1,-12,-3
2512477,9,18,-1,4,2,2,16,7
2520478,1,-12,-7,-8,2,-1,1,-4
2520478,-9,-3,-2,-1,-9,-6,-5,1
2536269,13,-8,-7,-3,-4,-4,-3,0
2536269,-7,-7,-4,1,-1,1,-3,-3
2537270,7,14,7,-3,0,0,-7,0
2537270,7,-3,-4,4,3,-1,-9,-1
2550565,0,-3,-13,-2,1,2,15,4
2550565,2,-7,-10,-3,-4,-3,-8,-2
2558565,17,21,9,-5,-5,-4,-14,-7
2558565,-19,-7,-4,1,4,-1,20,0
2573566,6,-4,4,28,3,0,-18,-6
2573566,7,-7,-4,-41,-9,2,40,10
2581566,-23,0,-1,4,3,0,2,-4
2581566,5,6,-2,5,-10,-4,-7,4
2595609,0,-5,-3,-14,-8,-2,-5,-3
2595609,3,4,-7,13,4,-3,-6,-8
2596568,-3,-15,5,6,6,3,-1,0
2596568,-5,6,-9,-24,-11,-5,-8,-3
2609569,-4,-2,6,-1,3,0,4,-1
2609569,3,2,-1,9,-3,-5,-23,-7
2617569,3,6,-1,-12,-5,-1,19,1
2617569,-12,-14,8,10,6,2,-11,-2
2633097,-1,1,2,-9,-2,-1,1,-7
2633097,-6,1,2,15,4,-2,-9,0
2641090,2,-1,-1,-38,-7,-3,-7,-2
2641090,-1,-2,0,29,0,0,1,3
2655866,6,-7,3,-19,-3,-1,-1,-3
2655866,2,0,-3,-12,-7,1,-12,-2
2656893,-26,-4,2,21,5,-1,30,11
2656893,3,-10,2,-1,2,2,-2,-9
2669607,6,11,0,2,0,-3,-2,3
2669607,-3,-6,-5,3,-2,-3,-9,-5
2678607,14,-5,-6,-11,-9,-4,-14,-3
2678607,-37,10,-3,51,23,1,-8,6
2692974,16,7,3,-69,-30,-2,22,0
2692974,4,-10,1,7,-3,-2,-25,-1
2700650,8,-3,-5,4,3,3,39,1
2700650,11,-8,-1,-7,-2,2,2,0
2714616,-56,0,-24,16,10,0,-6,-7
2714616,5,10,8,5,3,-1,-15,1
2722609,10,1,6,-2,-11,-3,-2,4
2722609,8,-7,-7,-18,-5,-2,-21,-6
2729612,-15,-1,-1,16,2,-1,50,8
2729612,18,-12,-4,-29,-10,-5,12,-12
2738392,-11,10,3,66,26,-1,-9,-2
2738392,3,-3,-2,-39,-30,0,8,4
2752845,1,-6,0,4,2,-2,-27,7
2752845,-12,8,-4,33,13,2,36,-3
2761066,7,-7,-5,-23,-2,1,-23,-5
2761066,-2,-2,2,-5,-1,-2,-4,-5
2776067,13,-2,-25,6,-7,-4,-6,0
2776067,-21,-1,10,34,3,0,-11,-1
2777075,14,3,-5,-49,-11,1,-7,-1
2777075,-2,-9,14,9,-1,1,-1,-6
2790074,27,-5,-13,-5,-1,-4,-18,2
2790074,-32,-11,1,-26,-7,-4,-4,5
2797855,-4,13,14,10,-4,1,12,2
2797855,-4,-1,6,15,15,0,-5,0
2813137,23,-1,-9,-19,-15,-5,-1,-7
2813137,-47,-14,-10,-8,0,-3,-12,0
2820851,10,14,0,6,-1,0,-4,-4
2820851,-18,3,-6,-1,-4,-5,-4,-2
2835642,-9,6,17,11,10,2,-8,-4
2835642,20,-10,-10,-13,-7,-1,5,4
2843143,-20,-5,-9,-7,-7,-3,-17,-3
2843143,19,6,-18,-6,1,-3,13,4
2851938,-10,-3,13,15,10,3,-11,-5
2851938,-2,0,8,-8,-6,-1,1,-4
2858243,20,-11,0,-2,-7,-4,-6,-3
2858243,10,7,-4,-5,2,2,1,4
2873243,0,-3,7,-1,0,-3,-21,2
2873243,17,4,-1,4,-3,2,1,0
2881243,-14,0,-2,1,2,0,-18,-6
2881243,5,3,-9,-15,-5,-2,6,-2
2894943,-1,-1,19,4,-3,-4,-8,-2
2894943,13,0,-4,5,4,0,0,3
2902942,-6,0,-12,-10,-7,-3,-18,-4
2902942,-3,-7,8,-7,-3,-2,7,-1
2909942,15,-1,-3,6,3,2,16,1
2909942,-5,1,20,1,0,0,-1,-4
2917942,-3,-3,-14,-4,-3,-2,8,-1
2917942,-7,-2,-6,-7,-7,-5,-20,-7
2932952,-11,-7,4,3,4,3,31,2
2932952,21,5,6,-9,-7,-4,10,10
2941179,-8,-8,-6,1,-1,-3,-6,2
2941179,12,3,-14,-1,-1,-2,-13,1
2955379,-40,-5,-2,-1,-1,1,21,-2
2955379,-21,-5,-9,0,2,-2,-12,-17
2963383,6,-9,0,1,-1,0,4,3
2963383,1,9,10,-2,1,0,9,1
2970166,-1,2,3,2,0,-3,-21,-3
2970166,1,-1,-6,0,-1,-1,3,-1
2978381,5,-2,-1,-1,1,0,6,0
2978381,-3,-8,7,-1,-3,-1,3,-2
3001168,3,11,-5,-2,-3,-2,-5,-3
3001168,1,-9,-2,0,2,2,3,-1
3002382,-1,1,2,-1,0,-3,-4,-2
3002382,-2,-1,1,-6,-3,0,1,0
3015168,-2,-16,-2,-3,1,0,-5,-3
3015168,-2,4,-6,8,4,0,1,1
3023381,-5,-2,4,-3,-5,-1,-2,-1
3023381,-2,5,-3,6,0,0,7,0
3038894,4,0,2,2,4,-3,-2,-2
3038894,2,-4,-2,2,2,-1,-3,-4
3040512,2,-11,-11,-56,-21,0,-1,1
3040512,-10,6,24,36,-4,-2,1,-10
3053186,-5,-1,-8,-38,-5,-1,-3,-2
3053186,-9,-3,3,27,-1,-1,-2,10
3061455,3,0,-4,-7,-1,2,13,-1
3061455,-3,-7,-9,-34,0,-1,-18,0
3075454,21,-2,-6,20,-5,-5,-5,-4
3075454,-28,0,-19,2,4,-1,-22,-5
3083452,16,8,0,10,3,-2,-4,0
3083452,-47,-9,3,12,6,2,26,-1
3099189,24,0,6,6,-8,-1,-14,-3
3099189,-8,9,-1,-28,-7,-3,-9,-5
3100189,-5,3,-4,15,4,-4,-1,-4
3100189,2,-13,-4,-5,5,-1,-16,2
3113450,7,-15,-4,-12,-2,-2,-2,-2
3113450,6,5,9,1,-15,-2,3,-3
3121190,-3,2,4,47,19,2,3,1
3121190,12,12,-1,-41,-19,-4,26,0
3135211,-21,-5,-20,4,-5,-7,-1,2
3135211,10,-11,1,4,13,7,-12,-8
3143341,-8,4,6,7,-5,-3,-6,4
3143341,14,-5,-13,-1,3,3,25,4
3158427,3,6,-2,0,1,1,-2,-3
3158427,-23,-9,6,-13,-6,-5,-2,-1
3159427,4,-11,-7,-2,2,-4,-20,-1
3159427,3,-1,-2,-2,-2,-1,-8,1
3173428,-13,-4,1,1,-3,-3,1,1
3173428,24,9,4,4,-2,-4,11,-2
3181428,-8,-7,4,-31,-6,2,5,-2
3181428,4,0,-6,8,-2,-4,-11,-2
3195446,-31,22,9,8,0,-1,3,9
3195446,8,-16,-9,-16,-2,-3,-4,-14
3203432,22,0,3,6,-3,-2,4,1
3203432,-57,-13,-7,4,3,2,21,-16
3217438,12,4,-1,-5,0,-1,-22,-5
3217438,17,8,1,-3,0,-1,17,-3
3218434,-44,-3,10,26,7,0,-23,-2
3218434,29,3,-13,-34,-7,0,20,3
3233255,-8,-5,16,16,1,-2,7,1
3233255,8,1,-12,13,2,-2,0,-1
3241482,9,5,7,-13,-9,-4,-7,-1
3241482,2,-7,5,8,4,-1,-17,-10
3255428,-7,-7,-3,-5,0,-1,3,-5
3255428,2,-2,-4,-4,-4,-3,5,7
3263450,-5,5,-4,-6,4,1,6,-2
3263450,-8,0,-7,13,-5,-5,-13,8
3278440,10,0,3,-11,-6,0,8,-6
3278440,5,-1,8,5,5,0,-7,4
3278440,14,-6,-15,-11,-6,-2,12,-3
3278440,-46,0,0,2,2,0,-2,0
3293449,-11,-7,-2,13,12,1,-7,-6
3293449,19,24,15,-20,-21,-2,2,7
3301445,-9,-19,-8,-30,-2,-2,1,-2
3301445,34,4,-11,16,-8,-2,-30,2
3317411,-17,3,-8,0,2,3,50,2
3317411,-17,-9,6,-9,0,-2,-4,0
3323297,5,0,8,15,5,1,11,3
3323297,9,-2,3,0,6,-1,-12,-4
3338317,1,4,2,-6,-12,-2,-23,-2
3338317,2,3,-4,6,2,-1,10,-2
3339317,-2,-2,18,7,-3,-3,-2,-15
3339317,-3,-6,-17,-10,2,-2,-3,0
3352632,18,-3,-7,10,1,-5,-6,5
3352632,-10,-16,-6,-5,-9,-3,-6,1
3360670,-3,8,0,6,3,0,16,-1
3360670,2,0,4,-10,-3,-2,2,2
3374639,-2,-6,-2,-4,1,-2,-6,-8
3374639,12,-5,-13,-6,0,0,-8,4
3382639,-11,-3,-7,-3,-2,-2,-8,2
3382639,9,3,-2,10,3,-1,3,-4
3397640,2,-8,7,-2,-1,-2,-15,-3
3397640,7,6,-8,6,3,-1,24,6
3398634,-14,-10,-1,-25,-10,-2,-8,-4
3398634,1,9,-25,8,1,0,-4,-4
3413635,0,-11,-3,-7,-3,0,-12,-1
3413635,-20,-1,5,-3,-3,-4,-6,-5
3420641,10,7,-13,15,5,0,-4,-4
3420641,8,-12,3,-6,1,-1,2,0
3435145,-7,5,6,-10,-4,1,-1,0
3435145,2,6,-4,4,1,0,-4,-9
3443146,-5,-6,-1,-5,-5,-3,1,2
3443146,-4,13,16,-1,-4,0,8,-2
3457654,-1,-1,-5,1,6,1,11,-5
3457654,8,-1,-3,19,1,0,-3,0
3458659,-16,-4,1,-15,-13,-3,-13,-9
3458659,-4,-8,4,-6,-1,-1,1,1
3472901,18,2,-3,-1,2,-3,-8,0
3472901,-58,-3,-2,-3,1,0,32,9
3480897,5,5,-1,-2,0,0,-13,-1
3480897,8,-8,-3,5,1,-2,-5,-2
3494856,-9,0,-2,5,-1,-2,-10,-4
3494856,3,2,14,-6,1,-2,-13,-1
3502653,2,4,-15,7,0,0,5,-1
3502653,-4,-14,4,-7,-5,-1,-7,1
3517852,-2,-6,-3,-3,-2,-1,0,1
3517852,4,12,10,-11,-6,2,-5,-10
3518931,2,6,15,9,3,-2,-2,1
3518931,1,-13,-7,-2,1,0,-2,-2
3533054,2,5,-5,27,8,-3,-4,4
3533054,2,-5,-7,-42,-17,-5,-27,-10
3541361,-3,8,1,15,-1,4,32,9
3541361,12,7,5,-5,-1,-3,-8,-1
3554668,-10,-15,2,-3,-3,-1,1,0
3554668,10,-13,-15,1,7,0,-6,3
3562750,-6,-5,-3,-1,1,-3,-15,-11
3562750,3,10,4,-3,-4,1,7,-1
3577954,3,-4,-6,-6,-3,-1,-19,-1
3577954,-6,-8,-4,7,-3,-3,25,-2
3578668,10,-5,-1,-9,-3,-1,-2,-1
3578668,-3,8,-14,5,-2,-5,-7,-4
3593043,-1,-1,-3,-11,-3,-1,-2,-5
3593043,-9,-1,-1,-6,-1,1,-6,2
3601005,3,0,1,14,6,-1,2,4
3601005,19,-1,11,0,2,-2,-8,-1
3615670,-4,12,-2,0,-2,0,8,-7
3615670,24,-20,-3,0,-2,-4,6,-1
3622677,-7,-4,-7,-8,-1,1,-9,-4
3622677,1,16,14,7,-7,-4,-1,1
3637969,7,-14,-4,-10,-7,0,6,1
3637969,1,-2,1,6,2,-1,3,-2
3639469,-7,-4,-1,-4,3,-3,9,-4
3639469,-14,-1,-3,-4,0,-2,-7,-2
3662000,0,7,5,-2,-1,0,-10,-2
3662000,-12,0,-8,2,0,-2,-12,-1
3663018,21,-8,-2,-12,-2,-4,-6,-1
3663018,-10,-1,1,0,-10,1,12,1
3674982,-14,-2,-4,-3,-2,-3,-1,-3
3674982,24,-1,2,3,2,-1,-6,4
3683247,-17,-5,-1,-12,-10,-3,-3,-3
3683247,12,2,1,-2,5,-1,0,3
3697984,-26,-5,5,7,2,-1,3,-9
3697984,-23,-19,5,6,1,2,-17,-1
3698984,14,17,10,9,-1,-2,7,2
3698984,-10,2,-1,-9,-5,-2,-3,-2
3712985,-2,1,-13,-5,-2,-3,3,6
3712985,4,0,1,1,4,2,-3,-8
3720986,-2,-10,-3,3,-1,-5,-14,-3
3720986,-10,2,-1,0,3,6,15,8
3735326,31,8,8,-4,-3,-2,-4,-3
3735326,-22,-3,-26,-1,-3,-3,-13,2
3743333,2,4,3,-3,-5,1,25,5
3743333,-8,0,-6,3,1,-4,6,-8
3758234,-3,-14,-1,-7,-5,0,-2,3
3758234,-4,5,1,-5,-1,-2,-10,-2
3766230,-10,-4,-6,5,1,0,-10,-3
3766230,9,-1,-3,1,1,0,-11,-2
3773236,-10,-12,0,-8,-5,-4,11,3
3773236,-1,8,1,0,-2,-2,-8,-3
3781233,3,0,-7,-1,-3,-3,-11,0
3781233,-3,-10,25,2,2,-1,-4,-5
3794938,3,17,-12,-2,-3,-2,-7,-4
3794938,13,-18,-18,-10,-2,-1,4,1
3802932,0,1,-17,6,-3,-1,-2,1
3802932,4,-10,1,-6,-3,-2,-12,-3
3818236,-13,-4,-27,-10,-2,2,27,5
3818236,6,5,12,8,0,-4,7,-5
3825940,-3,-3,5,0,2,1,-15,1
3825940,-4,-3,-13,-8,-4,-3,-10,-4
3834229,0,-3,10,2,1,3,25,-7
3834229,-6,2,4,-2,-2,0,2,1
3841229,-3,-4,-2,-5,-1,-2,-9,-4
3841229,1,-1,0,4,1,-1,1,-3
3855245,-31,5,2,-1,1,-2,-22,-5
3855245,-10,8,5,3,0,-1,6,-4
3863246,1,-6,5,-6,-8,-2,21,0
3863246,3,-5,-12,-4,-3,-2,-6,0
3878246,14,8,7,-2,-4,-2,3,4
3878246,-9,-5,-1,-3,-4,-4,1,-3
3886247,-22,-2,-7,2,6,0,-9,2
3886247,15,4,1,-2,-1,-3,0,-2
3893247,-2,-7,-3,-1,0,-1,-4,-3
3893247,10,8,-10,11,5,2,-6,-5
3901248,14,-6,2,-9,-4,-1,1,1
3901248,-48,11,-5,1,-5,-4,-11,1
3914253,7,4,11,2,3,0,-4,3
3914253,-1,-4,-3,0,-1,2,6,7
3922253,-1,3,-4,-1,-1,-2,-24,-2
3922253,-1,-20,-3,3,2,2,20,3
3937763,12,-4,-7,-16,3,-1,3,4
3937763,1,8,8,-24,-14,-3,2,0
3945760,-5,7,1,2,-9,0,2,1
3945760,-5,-1,-1,-11,-4,-3,-9,-5
3960276,4,-10,-1,14,8,-2,-13,-2
3960276,12,-3,7,23,4,2,2,10
3961271,-14,1,2,-27,8,0,-1,-3
3961271,3,0,-4,-8,-15,-3,-1,-4
3974277,2,8,2,9,3,-6,-16,-2
3974277,25,0,-23,-13,-4,-1,-8,14
3982273,-28,-1,9,41,6,-4,6,-13
3982273,-4,-12,-2,31,22,2,6,6
3997278,14,11,5,-30,-19,-3,-29,-3
3997278,-28,-3,6,16,2,-3,15,13
4005274,33,-12,-12,-35,-2,5,28,0
4005274,17,5,11,14,-9,-4,-7,-3
4020275,-16,-10,-1,9,5,2,13,12
4020275,-1,3,4,-13,-3,-5,-18,-12
4021275,-3,12,-10,13,6,1,-4,-1
4021275,-11,-27,-1,-7,-2,-3,-7,3
4034788,0,5,6,-13,-8,1,4,-4
4034788,-9,-9,-45,1,0,2,23,-12
4043347,9,9,29,7,1,1,-3,9
4043347,9,3,-16,-16,0,1,-17,5
4057734,-47,-8,8,13,-8,-9,-16,-17
4057734,-5,9,11,-8,2,3,20,-7
4065736,5,-11,-14,0,-16,-5,22,2
4065736,-3,6,-7,-11,-1,-1,-1,-1
4080683,8,3,-8,3,3,0,-5,-1
4080683,2,-4,18,10,7,-1,-20,-8
4081490,-9,-11,-11,-12,-6,-3,-12,-4
4081490,-1,3,17,-2,-3,-1,9,-2
4094499,1,-3,-7,3,-2,1,14,3
4094499,-4,0,15,-2,-3,-3,-8,-6
4109495,-13,7,-2,1,1,-1,-9,-2
4109495,-5,-12,-9,2,2,1,19,0
4117494,17,1,-1,4,1,0,-4,-1
4117494,-9,0,0,-13,-13,-5,0,-2
4126493,13,-8,-21,1,1,-3,-13,0
4126493,-3,19,9,2,-1,-1,-18,-10
4140314,-6,-4,-5,-2,1,1,12,1
4140314,0,-15,-2,0,1,0,9,5
4149348,-16,0,1,-1,0,-2,-18,-1
4149348,-34,-3,5,-6,-4,-3,-9,-5
4155260,18,7,5,0,0,5,47,17
4155260,6,4,-33,-4,-6,-7,-18,-9
4163220,-15,-11,8,0,0,-2,-1,-1
4163220,-11,-4,0,-2,0,0,2,-12
4178342,12,-7,1,-2,-2,-3,-24,1
4178342,-31,11,22,3,1,0,-4,2
4187221,7,-7,-4,-6,-6,-1,6,-3
4187221,8,-1,-13,-3,-2,0,-2,-2
4199232,-6,-4,-8,-1,-2,-2,-10,-8
4199232,11,-4,1,0,-1,1,3,1
4209222,9,9,-6,-1,-2,-1,-5,-3
4209222,2,-10,2,-1,1,0,3,2
4215224,-1,-2,-4,-1,-3,0,3,-2
4215224,5,-1,-3,-2,-1,-4,-8,-3
4223223,-2,1,8,0,0,0,0,-1
4223223,13,5,-6,-1,0,-2,8,3
4238020,-5,-8,1,-2,-4,-1,-6,-3
4238020,-2,9,7,-1,0,-1,-4,-4
4247020,1,-6,-12,2,0,-2,0,-2
4247020,5,1,6,0,-1,-1,-1,2
4260148,-9,6,-13,3,1,-4,-4,-4
4260148,10,-11,6,3,4,0,-4,2
4268813,2,-3,-16,-15,-16,2,7,0
4268813,4,3,-10,7,6,-1,-3,1
4275147,7,4,7,7,5,0,-3,1
4275147,-5,-1,-2,-36,-7,-1,-16,-15
4283814,-10,9,10,11,-1,-1,8,1
4283814,1,-7,-3,-1,-4,-1,12,1
4297821,13,-7,-1,-7,-3,-2,-4,3
4297821,-14,0,-19,14,5,-3,2,-4
4306817,31,4,11,5,6,-4,-27,-2
4306817,-8,-3,-11,-24,-14,-1,10,-1
4319817,7,-5,20,10,5,-4,-4,-11
4319817,23,0,-13,-11,-4,-1,-6,1
4328817,-23,-2,1,2,1,-4,3,-1
4328817,5,5,-2,10,1,-4,-25,-4
4334844,-6,-4,-7,-7,-4,2,36,3
4334844,5,-5,-2,8,-1,0,0,13
4343842,7,3,-2,-4,-1,-1,-3,-10
4343842,-3,-8,3,-4,1,-3,-13,3
4357859,-18,-4,-9,-5,-6,0,-10,-8
4357859,-2,2,6,0,-3,-2,-8,7
4366853,8,-2,-5,0,1,1,24,4
4366853,-25,8,11,2,2,-2,-20,-5
4388861,11,-2,-27,-5,-4,-1,-3,3
4388861,-8,-4,-2,3,-3,0,22,-1
4390855,18,-11,4,-5,-4,-4,-17,13
4390855,10,19,5,3,0,1,4,-1
4395143,-9,-12,-11,-5,-4,-4,-13,-4
4395143,-11,-10,-1,2,0,0,-2,-1
4403857,-14,-5,6,-3,-1,-1,-2,-4
4403857,6,4,-20,-1,-1,-2,8,2
4417863,21,-1,18,-3,-2,0,-5,1
4417863,3,6,-3,-3,-4,0,9,-5
4426856,4,-1,-1,2,1,1,1,-5
4426856,3,-6,-7,-3,-3,-2,4,4
4440410,0,-2,-2,-4,0,0,-8,-4
4440410,6,-5,-3,-1,-4,-4,-6,3
4448651,-9,2,4,0,1,0,0,-3
4448651,6,-12,12,1,2,0,7,-10
4455657,-9,11,-33,-1,-1,0,-11,7
4455657,-25,-13,7,-3,-2,-2,30,-10
4463658,-3,-1,-3,0,-1,-3,-10,-3
4463658,-8,0,0,-3,-2,0,9,-1
4477997,-4,-4,28,2,-2,-4,-21,-6
4477997,4,2,-22,1,0,-1,-9,2
4486661,-5,-8,4,0,2,3,2,0
4486661,-2,1,0,-6,-7,-4,-6,-5
4499661,-16,-1,12,-4,-3,-4,4,0
4499661,6,5,18,2,0,-2,-8,4
4508661,15,7,9,4,3,1,13,5
4508661,-17,-2,-5,-4,-4,-2,-4,0
4514668,10,5,-6,-5,-5,-2,15,1
4514668,-52,-4,4,0,-1,-4,-6,-6
4523663,-7,-8,-7,-3,-2,-4,-9,-5
4523663,8,-2,-2,3,0,2,-7,-2
4538171,0,11,-16,1,0,0,21,1
4538171,2,-13,2,-1,-3,-2,-23,-6
4547173,4,-1,-16,-9,-4,-1,5,-1
4547173,7,0,-8,-2,-1,-3,1,-1
4560189,-5,-1,5,1,0,-1,-4,-5
4560189,16,5,-5,1,0,2,-19,3
4568190,-12,-8,4,-2,-2,-5,-6,-11
4568190,-4,-3,10,3,0,1,7,6
4575190,3,4,-2,0,1,2,1,2
4575190,18,9,0,1,-1,-1,-2,-2
4583190,1,-3,3,-2,-4,-3,-4,1
4583190,-8,-6,-1,-3,-4,-1,8,3
4598191,-8,1,4,2,-1,-2,-10,-3
4598191,-24,-11,-4,-4,-2,-2,7,-2
4606192,-7,3,-6,2,0,-1,-1,3
4606192,13,1,-4,-2,-2,-3,-7,0
4620193,-5,-7,-2,-1,-2,-1,-10,0
4620193,10,7,27,0,-1,-1,3,-11
4629313,16,7,-19,-3,-1,-1,8,-4
4629313,-17,-9,3,-1,0,-1,2,0
4635140,-5,-5,-5,-2,1,0,-7,-3
4635140,9,-7,-6,0,-1,-2,-15,3
4644144,-12,8,6,4,1,1,29,-1
4644144,6,-2,-5,-2,-3,0,-11,1
4666139,4,1,3,-1,-2,0,12,-5
4666139,3,2,-9,-5,-2,0,3,-1
4668139,-10,-6,3,0,-3,-1,-8,-2
4668139,0,-1,-11,0,1,1,2,-3
4680140,-3,17,11,-1,-2,-6,-5,-2
4680140,-2,-14,-5,-2,0,0,1,2
4689140,2,-14,-6,-1,0,0,-9,5
4689140,3,-3,5,-4,-4,-1,2,-11
4695140,2,-10,-1,0,0,-1,-12,-2
4695140,10,17,-5,0,1,3,28,2
4704142,0,-8,3,-2,-2,-3,-5,0
4704142,12,4,-1,-2,0,-3,-7,-2
4718327,-14,-9,11,0,0,-2,-4,-2
4718327,-12,-3,-13,0,-2,0,-3,-2
4727283,28,6,0,-1,-2,-1,7,-7
4727283,15,-9,3,-6,-4,-2,-6,1
4740292,1,-7,2,0,-3,-3,12,2
4740292,-4,-2,5,0,0,0,1,-8
4749325,-18,3,-5,-5,-7,-3,-15,-1
4749325,-3,0,-9,1,0,-2,-8,-9
4755329,3,-11,11,-5,-2,-3,0,-1
4755329,-2,-6,-8,-2,-1,-3,-4,4
4764330,-9,20,22,2,1,0,-10,-6
4764330,8,-7,-29,-3,-1,0,5,-4
4778331,-36,-15,-30,-5,-4,0,5,-3
4778331,8,5,1,0,0,1,-11,1
4786331,-7,0,-2,-2,-2,-2,6,1
4786331,-7,-2,8,0,-2,-3,-1,-1
4799337,1,0,-3,-1,0,-1,0,-1
4799337,-5,-6,-11,-3,-3,-3,-9,1
4808362,-3,-5,3,-1,1,0,0,-9
4808362,-4,9,14,-1,-2,-2,-6,1
4815399,11,4,-4,2,0,-1,-4,2
4815399,-3,7,3,-2,-2,-1,17,-7
4823335,-10,-14,-12,-1,1,1,14,7
4823335,3,-2,-1,-2,0,-3,16,-1
4838623,0,11,5,0,2,1,-17,-1
4838623,-2,-5,6,1,0,0,11,4
4847124,-3,-6,-8,0,3,1,-11,-3
4847124,8,2,-6,-2,-3,-2,-5,-1
4860434,-48,-7,3,2,1,-1,5,5
4860434,1,-8,-41,-3,-3,-1,-8,0
4868436,2,5,10,-2,-3,-4,-14,-5
4868436,-6,7,-3,-1,0,2,6,5
4874443,13,5,5,0,-3,-2,-1,-2
4874443,-2,-6,-11,-5,-1,0,-5,-4
4883437,-12,-3,-4,-1,-1,-2,-3,1
4883437,4,-19,-7,-2,2,1,-8,0
4897442,-5,8,0,-4,-5,-3,7,-8
4897442,3,2,9,4,1,-3,-6,-1
4906437,13,2,-7,-2,-2,3,20,7
4906437,-17,-1,4,1,-1,-2,-7,-3
4919439,13,-2,-12,-2,1,1,8,-8
4919439,0,4,15,-2,-4,-3,3,-3
4928438,-2,10,-8,2,1,0,5,6
4928438,-7,-26,10,-2,-5,-3,3,-1
4944171,3,-6,-23,-1,-1,-2,-6,-1
4944171,8,0,1,0,0,-2,-11,-7
4946183,-6,-3,2,-2,-1,-1,-2,1
4946183,0,9,8,0,-3,1,-1,2
4957913,15,1,2,-3,-3,0,-6,-1
4957913,5,9,10,-1,0,0,2,3
4966679,-31,-15,-5,-1,-2,0,-22,-8
4966679,-1,7,9,2,1,0,31,2
4979906,-2,-9,-28,-3,0,0,1,-1
4979906,-8,5,27,4,-1,0,-1,2
4988681,29,1,-5,-4,-2,-2,0,-3
4988681,-8,4,-10,1,1,-3,-13,-4
5003684,2,7,18,-3,0,-2,-5,5
5003684,-9,-2,1,-2,-2,-3,4,-1
5005683,11,-17,-2,-1,0,-2,-5,-7
5005683,-30,4,13,2,-2,-3,-18,1
5017683,2,-3,-12,-1,-2,-1,4,1
5017683,3,7,1,1,0,1,17,5
5026683,3,-6,-26,-5,-1,-3,-1,-7
5026683,19,0,-2,-4,-3,-3,-23,-6
5040476,0,-9,9,1,1,1,6,-2
5040476,5,5,4,-3,-4,-2,-11,-4
5048977,-2,9,5,-1,-2,-3,2,2
5048977,-1,8,-8,0,0,-1,7,-4
5063600,0,-15,-2,-3,-2,-2,-6,1
5063600,14,-8,-8,-4,-1,-2,-6,-3
5070297,-9,-3,3,-2,-2,-2,0,-10
5070297,-4,0,-17,-4,-3,-1,-10,-9
5078390,4,6,10,2,1,0,8,0
5078390,-7,-2,-4,-2,-2,1,-7,1
5086300,8,-1,0,-2,-1,-2,-4,5
5086300,-26,-2,4,-2,1,-1,-12,-7
5099305,0,-5,3,1,2,1,28,-5
5099305,-8,-13,-30,-3,-3,-2,17,-1
5108384,8,1,4,0,-1,-3,-4,-6
5108384,4,8,2,-3,-5,-1,3,5
5124358,-8,9,2,6,7,1,-13,-1
5124358,6,-2,7,-10,-9,-6,-8,0
5125300,-5,-8,-4,-1,-2,1,4,8
5125300,9,3,-5,-3,-1,0,1,-2
5138595,-10,-3,-9,8,2,-2,-9,-4
5138595,-5,-3,-1,-6,-6,-5,-11,-3
5147091,-12,7,0,5,3,0,1,-1
5147091,18,-21,7,-4,-2,-1,12,9
5160189,5,-1,0,-6,-8,-3,-12,-5
5160189,5,3,0,-1,0,0,-21,-5
5168885,-29,2,6,-9,11,3,29,-1
5168885,3,-8,-2,-10,-28,-5,15,-2
5184189,-11,-6,1,15,8,-2,-14,4
5184189,23,3,9,-68,-8,-1,11,-10
5185887,8,0,13,18,-12,-1,-13,2
5185887,-37,4,-7,4,12,2,-1,1
5198192,13,-5,-9,-5,-9,-2,0,-6
5198192,-12,-5,12,33,12,2,-11,-1
5206888,4,1,-6,3,0,-2,-8,-5
5206888,-4,-1,9,-12,0,1,4,2
5219890,4,-2,-10,-4,-11,0,-28,-5
5219890,-1,-2,-14,2,-1,-4,0,1
5228887,2,0,-7,23,1,-3,-13,12
5228887,-7,-5,9,-7,1,-1,13,-17
5244308,8,-3,5,2,2,-3,-9,12
5244308,-44,2,-28,13,-8,3,-3,-1
5246278,2,-16,-3,-21,-15,-4,-6,-9
5246278,51,8,1,9,10,0,-6,6
5258038,-30,7,13,-5,2,-3,0,-2
5258038,-19,-7,-4,0,1,-1,-30,-2
5267038,5,15,7,1,2,0,28,-2
5267038,-1,-16,-13,7,3,4,10,5
5280043,3,-10,1,-19,-6,0,5,-2
5280043,-4,1,4,13,1,-4,-7,1
5288828,10,-8,-10,-13,-4,-3,-15,0
5288828,1,9,11,1,3,0,-5,-6
5302829,10,18,-3,-1,-4,-3,-13,0
5302829,1,-15,3,4,4,1,5,0
5309835,10,-12,1,-9,-2,-2,-3,-3
5309835,2,-1,-5,4,0,0,-3,2
5318047,-2,4,-3,-1,-2,0,-1,-6
5318047,9,0,13,6,3,0,9,4
5326832,-2,-3,-29,-15,-5,-3,-11,-2
5326832,-17,-2,4,6,1,1,10,9
5339849,-19,0,-7,-2,1,0,6,0
5339849,17,2,1,-4,-2,2,24,0
5349074,-5,3,17,0,-1,-2,-10,-6
5349074,-10,-7,-8,-4,-4,-3,-18,-7
5363309,23,-2,-10,0,0,0,3,-2
5363309,-94,-6,15,-2,-6,-6,-9,7
5372272,9,3,-3,3,2,1,-5,-18
5372272,2,12,-12,4,0,-3,-8,-6
5378310,12,-12,11,-9,-1,-1,5,9
5378310,14,-6,0,0,-2,-4,-5,-11
5387063,-15,2,10,0,0,-2,-10,10
5387063,-7,2,-7,-4,-3,-3,11,2
5400303,-16,6,9,3,-1,-1,0,-12
5400303,10,1,-3,2,4,0,4,9
5409065,-15,-3,-4,-6,-2,-1,-9,-1
5409065,13,-12,1,1,2,1,-1,-1
5423066,-2,1,5,-2,-1,-1,2,6
5423066,21,-5,-10,-1,-2,2,15,1
5432294,1,2,1,0,-4,-3,1,1
5432294,-6,-3,-6,0,-1,-3,-8,-3
5438321,0,1,10,-3,-4,-1,7,-2
5438321,3,-6,9,3,3,0,-6,-3
5447034,-2,1,0,0,0,0,0,-2
5447034,-2,2,-7,-3,-4,-2,-3,0
5460282,18,0,0,-3,0,-3,1,5
5460282,5,10,0,-3,-1,0,3,-6
5469063,-4,-8,-5,0,-2,-1,2,1
5469063,3,-4,8,6,6,2,1,1
5483023,4,5,0,-7,-9,-6,-2,-2
5483023,7,-1,-9,-1,-1,-2,-4,-4
5498059,-4,-3,3,3,2,1,5,4
5498059,1,4,-3,-1,-1,-3,-7,-8
5499054,-6,-2,-7,1,-1,-2,-2,-8
5499054,2,-3,-1,0,-1,0,2,-2
5507019,-12,3,-5,-5,6,3,4,1
5507019,3,-4,1,-8,-9,-3,-5,-2
5520019,15,-9,-4,-1,-3,-5,-2,-6
5520019,-26,-3,-11,-3,-1,0,0,-5
5529039,11,6,2,0,0,0,0,-1
5529039,-7,5,-10,-3,1,0,12,2
5543015,-10,-20,-6,-5,-3,1,-7,0
5543015,2,5,1,14,5,1,1,-6
5552238,9,-6,-23,-22,-4,-3,-7,6
5552238,-54,3,10,4,-4,1,31,1
5558314,12,1,7,6,4,2,21,0
5558314,18,-14,-24,-8,-5,-2,-9,3
5566979,-9,-3,2,4,1,-1,-11,-6
5566979,15,6,-3,-1,-2,-1,-20,3
5580314,-4,-1,-5,1,1,-1,-10,-14
5580314,-7,6,10,2,3,0,8,4
5589017,-6,-8,3,-3,-8,-3,4,-7
5589017,15,-6,-5,-1,0,-2,-6,1
5602983,-5,4,0,-3,-2,0,0,0
5602983,6,13,0,-9,-3,-4,-11,-5
5611982,1,-14,0,5,0,2,16,1
5611982,1,-3,-1,-1,-2,-4,11,-2
5618316,-10,-4,-6,0,2,2,-8,2
5618316,8,3,-4,-4,-2,0,13,0
5633317,-2,5,4,-1,-3,-1,-12,2
5633317,-1,-1,1,0,0,0,-6,-6
5639990,-4,-7,-4,-1,-1,-4,-9,0
5639990,-2,1,-9,-5,-3,-2,-6,3
5648992,20,5,28,7,1,-1,1,-15
5648992,20,-12,0,0,1,0,-10,5
5663369,-64,-1,-7,-2,-1,0,2,-1
5663369,11,-7,-3,0,-5,-2,-3,3
5671300,-16,-6,-9,-3,0,0,-10,-9
5671300,13,8,11,2,0,0,9,-10
5678317,10,1,4,0,0,1,1,5
5678317,-3,-4,3,-2,-2,-2,1,-5
5686300,-13,-2,-7,-2,-2,-4,-4,6
5686300,3,-3,-7,-5,-3,-4,-26,-2
5699308,13,2,3,2,2,-1,29,-1
5699308,-14,4,2,1,0,3,-5,-3
5708339,6,-5,-4,-2,-4,-4,4,3
5708339,-10,-1,-4,-3,-1,0,-13,-2
5722303,14,4,-3,2,0,-1,-6,1
5722303,-7,-8,-1,-4,-3,-3,-4,2
5731303,-3,7,1,3,1,3,4,-5
5731303,2,1,1,-1,-1,-1,1,-10
5737829,-2,-8,-9,-2,1,-1,-10,3
5737829,3,-13,2,-2,-2,0,7,-5
5746829,6,3,1,1,0,-1,-1,4
5746829,-15,17,12,1,-2,-1,-3,-4
5760337,17,-18,-17,-1,-1,0,-5,-1
5760337,-2,2,5,2,1,-3,-3,-2
5768337,4,-4,-1,-2,-2,0,20,2
5768337,-6,-2,-7,-5,-5,-4,-2,-7
5783366,-6,12,7,-1,-4,-1,-2,-1
5783366,2,-7,-3,-4,-2,-5,-18,-2
5791340,0,-1,-3,-2,-1,-2,-13,4
5791340,-5,-2,-8,-3,-4,-1,8,4
5797376,-3,2,1,3,1,1,1,-5
5797376,6,-2,-4,-2,-4,-2,2,-5
5806341,4,9,-3,1,0,-3,-15,1
5806341,-6,-16,-13,-3,-3,-4,-12,-1
5819341,-7,-10,6,-2,-3,0,-4,-3
5819341,15,13,7,1,0,0,-6,1
5828342,-3,10,4,-2,-1,1,4,-4
5828342,-5,0,-1,-1,-2,-1,1,1
5843135,-7,-30,-5,-3,-2,-2,3,-3
5843135,0,6,-4,0,1,2,0,1
5851429,6,-9,1,0,-1,-1,3,-4
5851429,4,6,-33,-3,-1,-1,-17,-1
5867430,28,12,4,0,0,-3,7,-1
5867430,-18,2,6,-2,1,-1,5,-5
5868431,-15,-4,-9,-6,-7,-2,-16,-11
5868431,18,-2,8,1,1,-1,27,4
5880431,-7,8,-5,-2,1,0,-13,-2
5880431,16,-7,-3,-1,-4,-4,3,0
5888433,-12,-5,-3,2,2,0,-1,-1
5888433,-8,-5,1,-8,-6,-5,-16,-4
5902434,-1,-1,4,3,0,2,22,2
5902434,-20,2,30,-1,-2,0,-5,-5
5911433,-5,5,-20,-3,0,0,-2,4
5911433,-5,-18,-1,0,-1,-1,-2,1
5926441,11,6,0,-3,-1,-1,-9,2
5926441,-7,-6,-13,-1,-3,-2,-7,-6
5928434,-9,-7,1,0,-1,-2,9,2
5928434,7,2,7,-3,-2,-2,-19,1
5939951,-11,1,-9,-3,1,0,-1,-7
5939951,11,-1,-4,-3,-4,-4,4,0
5948989,14,0,14,1,0,-1,2,-4
5948989,-6,-8,-25,-3,-2,3,-12,4
5962702,-14,1,3,0,-3,-4,13,2
5962702,9,-3,-7,-1,0,-1,4,6
5971474,13,-1,1,-4,-1,-1,5,1
5971474,3,7,11,2,0,-2,2,-3
5986475,21,-8,-15,-3,0,0,-15,6
5986475,-16,-2,17,4,1,1,-4,-8
5988474,-5,9,-19,0,-2,-1,0,-4
5988474,-1,3,6,-4,-1,-2,9,-3
5999694,-6,9,17,0,-3,-4,-7,2
5999694,-2,-6,-3,0,-1,1,-3,2
6008477,6,-1,2,-1,1,0,2,1
6008477,6,-4,-3,0,-1,0,9,-6
6022702,-4,2,-8,-2,-1,-1,-5,-4
6022702,-3,-9,-11,-5,-2,-2,-4,4
6031477,21,-7,2,-1,-1,-1,-13,-1
6031477,-8,4,-2,0,1,2,15,4
6046325,-2,8,1,0,0,0,-8,-6
6046325,-1,-7,-1,1,-2,-1,-3,-1
6052431,-3,10,1,-7,-6,-2,-6,3
6052431,1,-10,3,2,-1,-2,3,2
6060357,0,-1,-9,-1,-5,-3,-6,-7
6060357,3,5,0,0,1,3,-7,-3
6068322,-8,-7,0,4,1,-3,-3,-5
6068322,-20,-2,0,0,-1,-1,1,1
6083356,11,-2,9,-1,-1,-2,-3,-2
6083356,8,7,-3,-1,-2,-3,-4,0
6091355,5,-6,5,-3,-2,0,32,-1
6091355,-26,0,-4,0,1,-2,-9,6
6106287,-8,2,17,-1,-4,-1,3,1
6106287,-2,4,-5,-4,-2,-1,0,-4
6108281,-3,-16,-3,-1,-2,-1,2,6
6108281,38,2,3,2,1,1,-29,-13
6119281,-12,3,-3,-2,-1,-2,5,6
6119281,-1,-7,-14,-3,-2,-1,11,-1
6128282,-16,9,13,3,-1,-6,-2,-5
6128282,15,-1,-1,1,0,1,-8,-4
6143352,-34,9,-2,1,-2,-2,-19,-3
6143352,20,-12,-14,-3,-1,1,7,-1
6151619,-10,-4,-11,-2,-1,-4,-15,3
6151619,0,3,5,0,-2,-2,10,2
6166962,7,-20,-23,-3,-2,-3,1,-4
6166962,-4,8,11,3,0,0,4,4
6168620,-7,1,5,0,1,1,-7,-9
6168620,-3,-11,-8,-4,-1,-1,-1,2
6180964,-5,8,21,1,-4,-2,6,-10
6180964,0,6,-4,0,0,-1,-11,-3
6188644,5,-9,-9,0,-1,1,8,7
6188644,12,-11,-1,0,0,-1,-8,3
6202624,-33,3,-2,0,-3,-1,-10,-4
6202624,-8,0,2,-2,0,-2,8,-3
6211641,-1,-2,0,-2,-1,0,-17,-8
6211641,19,2,-4,-1,-1,-2,2,3
6226625,35,2,-10,-3,-1,0,-7,1
6226625,-24,-9,-7,-6,-5,-4,4,1
6228662,-6,6,11,2,6,5,5,-1
6228662,-16,-10,1,0,-5,-3,-4,-5
6240133,18,3,0,-1,-3,-1,2,3
6240133,4,-4,-1,-4,-1,-3,-11,-5
6254639,-3,-5,-7,-2,-3,-5,-3,0
6254639,-6,7,2,-3,-3,0,38,-2
6262895,1,5,9,4,2,1,1,4
6262895,-4,-9,-6,-3,-1,-1,-5,-1
6271640,-21,-1,1,-4,-3,-5,-11,-5
6271640,12,8,4,2,0,-1,3,-2
6286640,-5,-10,-15,-7,-3,-1,15,2
6286640,25,7,7,-1,-1,0,-12,3
6288640,-51,-3,-34,-9,-3,1,14,-2
6288640,-2,6,19,13,1,-3,0,-1
6299844,-1,-3,2,-4,1,3,10,1
6299844,4,-4,-8,4,-1,-4,-4,2
6308841,13,-9,-3,-20,-11,-1,-4,4
6308841,-12,-3,-14,11,6,-4,-14,8
6331867,-11,-2,5,-12,1,2,2,-3
6331867,0,12,-2,3,-3,0,0,-4
6333904,-8,-1,6,-17,-2,-2,14,7
6333904,-19,5,2,-7,-9,-2,-17,-4
6347158,22,-16,-5,-9,-2,-4,-8,-6
6347158,-9,-6,3,9,6,1,4,1
6348895,13,12,29,-12,-4,-1,-11,-2
6348895,11,9,-29,17,4,0,16,0
6360344,10,-26,-12,32,22,2,-7,4
6360344,-79,-10,6,-64,-31,-5,-10,-10
6369190,9,2,6,22,3,-1,-1,-15
6369190,-26,19,21,1,-1,-1,-14,5
6383345,45,-1,-24,9,-4,-6,-1,14
6383345,31,-1,-10,11,17,4,12,3
6391345,1,-11,-3,3,-6,-3,-3,5
6391345,-12,-4,3,-17,-13,-2,9,-15
6407342,-26,-1,-8,-14,-6,-3,-26,-7
6407342,36,16,-4,0,0,-2,21,-1
6408193,-61,-1,-6,26,18,4,-1,4
6408193,15,-16,-10,-6,-13,-5,-12,-8
6419194,-13,3,8,35,11,-3,-11,-10
6419194,3,-9,-5,-27,-8,3,13,3
6428241,5,0,8,7,-10,-8,-13,-3
6428241,0,-2,-5,-11,-9,-3,-6,-3
6443142,-20,-11,2,-6,-7,-3,10,-3
6443142,-1,7,1,4,5,-3,-5,2
6452274,17,3,3,13,9,1,-1,0
6452274,-2,-17,-5,-5,3,2,-3,-1
6467344,-16,7,-4,-26,-17,-5,3,-14
6467344,3,-8,5,32,12,2,-7,-5
6469185,17,10,-8,-17,-10,-1,-11,-1
6469185,-15,-8,-5,-6,1,-4,11,-5
6480342,25,11,7,-4,-1,2,-2,3
6480342,-22,-11,-3,1,-3,-6,-13,-3
6489185,9,0,-5,0,1,2,29,-4
6489185,-27,4,4,-14,-3,1,6,11
6503187,37,-13,-5,-2,0,-2,5,0
6503187,4,14,10,4,-2,-6,-18,0
6511304,-8,0,-2,-2,-2,-1,-6,5
6511304,33,-19,-18,4,4,1,-9,-8
6526193,-27,2,-2,-10,-7,0,1,2
6526193,2,-2,-6,3,-2,1,-1,-3
6533340,5,17,17,-4,-3,-3,2,1
6533340,-20,-8,-4,-2,2,1,2,-5
6540474,-25,9,2,1,0,2,-7,-4
6540474,21,-11,7,1,-2,-3,-2,-2
6548975,-24,-2,-3,1,0,-1,-9,0
6548975,14,1,-9,-1,2,0,9,0
6563338,24,-2,0,-4,-6,-1,7,-9
6563338,-39,2,-3,4,0,1,-8,10
6571306,32,-12,-9,-10,-7,-3,14,-5
6571306,-3,4,10,6,7,4,-9,13
6585593,-1,15,-11,-7,-4,-5,-9,-1
6585593,-12,-27,-12,-4,-4,-3,2,-13
6593339,2,-12,-8,-6,-2,-2,-6,-4
6593339,15,9,0,-1,-2,-4,-6,2
6599591,-30,-3,19,-1,-2,-4,-1,1
6599591,-13,7,14,6,0,-1,-8,-6
6609308,19,3,-14,-1,0,1,13,1
6609308,8,-4,-18,-7,-3,-2,-1,-4
6622315,-8,-7,-3,-1,2,2,-1,3
6622315,2,8,11,1,-2,-3,2,-2
6631310,-2,-5,3,1,0,0,-8,-2
6631310,18,7,5,1,4,4,1,1
6646061,-9,-16,-5,0,-1,-2,1,-1
6646061,1,0,-9,-5,-2,1,9,2
6652557,4,-4,-8,-2,0,-3,-8,-4
6652557,-2,-10,-2,-2,-4,-3,-2,-2
6659776,-8,8,3,0,0,-1,1,-1
6659776,9,-2,0,1,-1,1,1,2
6668559,3,-2,0,-1,0,-2,-8,-1
6668559,-11,-3,2,-2,-5,-1,3,-4
6682850,-5,-3,-2,-3,-1,1,4,0
6682850,2,1,-5,-1,-2,-1,2,5
6691561,-9,-12,-8,0,1,-1,-6,-8
6691561,-10,11,15,5,3,-3,1,-1
6705598,3,-1,-8,-5,-5,-3,-3,-3
6705598,14,-3,-9,-4,-2,-2,-5,3
6712563,9,2,-11,-2,-4,-2,-5,2
6712563,-11,-14,20,1,-1,-3,0,-2
6719563,19,6,6,4,1,2,23,1
6719563,-16,1,-7,-6,-2,-1,13,1
6728563,16,0,9,0,-1,-1,-16,4
6728563,-14,8,-21,-2,-3,1,22,2
6743283,-10,-10,-5,1,0,-4,-13,-3
6743283,29,-2,8,2,-1,-2,0,-11
6752293,-18,4,-6,-2,-2,-4,-17,6
6752293,23,10,1,-2,1,-1,-3,-8
6765300,-11,-14,-18,-5,-3,-1,-3,1
6765300,8,-4,-9,2,2,1,-4,-7
6772300,-11,7,4,-2,-2,-1,2,-10
6772300,0,-13,-5,-3,-4,-2,-11,-2
6779508,0,11,8,1,1,0,0,1
6779508,6,1,-1,0,0,0,1,0
6789295,-16,-5,-6,0,-1,-1,14,2
6789295,-20,-3,8,-5,-4,1,-5,1
6802296,6,-3,-3,-2,-2,-1,-18,-4
6802296,-7,-4,-9,-3,-4,-3,33,6
6811296,-4,3,8,0,2,1,3,-3
6811296,9,10,-8,-1,1,-1,-5,-4
6825513,-1,-6,6,-1,0,-1,-4,-3
6825513,-7,5,-22,-5,-6,-6,-20,-6
6833298,-4,-2,-1,-1,-2,-2,-3,2
6833298,3,0,8,1,-2,-3,-4,-7
6849259,-7,-7,-11,-4,-3,-1,-3,11
6849259,35,0,9,3,1,0,-8,-2
6851218,-11,-7,-11,-2,-1,-1,0,-1
6851218,-5,-4,8,-2,-2,-4,-4,-6
6862791,-13,-2,-6,0,-3,-3,0,-16
6862791,-9,-8,-8,-3,1,1,-3,1
6871529,14,3,7,-1,-2,-3,-4,0
6871529,-7,0,-6,0,-1,-1,-4,-1
6885742,3,-8,3,-1,0,-1,0,1
6885742,-11,2,1,-2,-3,1,5,2
6894530,3,-8,-5,-3,-5,-3,-2,-8
6894530,-17,7,-1,0,0,0,2,6
6908818,15,-5,8,-2,0,-1,3,3
6908818,-11,9,-17,-1,0,-3,-10,-4
6910532,-13,-1,9,-1,-2,0,4,5
6910532,8,8,-2,0,0,0,26,-1
6922866,-10,-12,-2,0,-1,0,-5,-4
6922866,2,-7,6,-2,-2,-3,6,4
6931534,-2,0,-1,0,1,0,-1,-3
6931534,4,-6,-9,-2,-2,-1,-27,-9
6945065,-5,7,2,-6,-6,0,33,10
6945065,-11,-6,1,-1,-2,-2,-1,1
6953586,9,10,18,3,-1,0,-2,-3
6953586,2,-7,-12,-4,-3,-3,-8,0
6968585,0,-4,-4,-1,-1,-4,-13,-14
6968585,17,5,0,2,3,5,12,-2
6970580,-23,-11,-7,-4,0,2,-9,6
6970580,2,4,17,4,1,-3,0,-1
6982912,-2,8,-7,-4,-1,-1,-6,2
6982912,5,-8,21,1,-2,-1,-1,1
6991579,13,5,-19,-4,-1,-1,-7,-10
6991579,4,3,-3,-8,-4,-3,7,5
7004581,-15,-11,4,1,-1,0,2,-3
7004581,3,9,1,2,-1,-4,-21,-6
7014581,-7,-9,-1,-1,1,0,19,2
7014581,-15,-6,-4,-1,-3,-2,-12,-3
7028588,14,12,6,-4,-3,-1,6,2
7028588,-15,-7,-3,-1,2,-1,-5,0
7030582,11,-9,-2,1,0,0,-17,-7
7030582,-5,-8,-12,-9,-5,-5,-3,4
7043078,22,3,-10,1,3,0,7,2
7043078,-6,12,11,-1,0,-1,-6,-3
7051281,-10,-12,-1,-3,-1,-2,-3,7
7051281,3,-3,-10,0,1,-1,-5,-7
7065323,12,-9,-15,-2,-3,-1,-10,-1
7065323,-2,1,17,3,-1,-2,7,-5
7073291,-1,17,10,0,0,-1,-2,-1
7073291,3,-1,5,0,1,1,2,1
7089291,-14,2,-2,0,-2,-4,-7,-2
7089291,-7,-15,-4,-6,-3,-2,-1,6
7090291,1,2,-2,-1,-2,-3,3,-7
7090291,0,-4,1,3,2,1,-5,-5
7102291,-9,6,8,1,0,0,25,4
7102291,-1,1,-2,-4,-3,-2,-15,0
7111292,9,-3,-4,-1,-3,-3,5,8
7111292,-4,-1,0,-3,-3,-1,7,-1
7124299,-8,-2,1,-1,1,-2,-11,-4
7124299,-6,-2,-8,-1,-1,0,-1,1
7134363,24,1,-8,-1,2,1,-5,-5
7134363,-15,-2,4,1,-2,0,20,-7
7149101,-44,-10,-2,0,-3,-1,-5,0
7149101,-3,-2,-2,-4,-3,-2,1,-2
7150804,-3,6,-2,1,0,-2,-4,0
7150804,-2,-9,7,1,1,0,-4,0
7163112,7,7,-7,0,1,-2,-15,-2
7163112,-8,-11,-10,-6,-2,3,40,11
7171813,7,3,16,-1,-3,-3,-1,-9
7171813,-11,4,-7,0,0,0,-6,1
7185116,-6,-7,5,2,1,1,17,-2
7185116,4,0,-11,-4,-2,-3,-33,-3
7194814,-1,-7,-13,-3,-4,-1,23,1
7194814,5,-3,5,2,1,0,-4,-1
7208821,17,9,2,-1,-2,-3,-9,-3
7208821,-4,3,9,-1,-1,-2,-1,-9
7210815,-7,-22,-4,-2,-2,-2,-8,-2
7210815,-2,1,-3,-3,-2,-2,-9,1
7223111,6,2,-4,0,0,-1,-5,-3
7223111,2,5,4,0,-3,-3,-13,-5
7231817,-18,-3,-11,-2,-1,-2,18,-1
7231817,31,-14,-6,-4,0,-1,-8,3
7245057,7,7,6,0,2,1,2,4
7245057,-11,-4,1,0,-1,-3,32,-2
7254056,-8,4,-1,-2,-2,-2,-12,-1
7254056,-2,-2,-2,-6,-7,-4,-11,-1
7269057,5,-6,-9,-1,0,-4,14,-7
7269057,-4,4,7,2,1,-1,-7,8
7271229,1,1,3,-1,1,0,1,-9
7271229,-5,7,-4,0,-3,-1,-9,1
7292241,-2,-13,6,-6,-6,-5,-9,-2
7292241,-9,-2,-13,1,0,-2,-11,-8
7294058,-10,6,4,-3,-1,-1,3,3
7294058,9,-5,5,0,-1,0,0,1
7305058,-14,-2,-2,-1,-2,-1,-13,-2
7305058,-7,0,-25,-4,-2,-2,-3,-2
7314059,2,-25,-8,-3,0,0,-11,2
7314059,4,8,6,1,-1,-3,-7,3
7329060,-33,4,1,-3,-1,0,0,-4
7329060,6,-8,5,-2,0,-1,23,0
7331061,2,12,8,1,-1,-1,-8,-4
7331061,-48,-2,6,-4,-3,-1,4,-3
7343067,17,-6,-17,1,-1,-2,-6,-3
7343067,0,-2,-3,2,2,1,-18,-1
7351568,8,3,0,0,-2,-2,5,-2
7351568,10,-10,-1,-3,0,1,10,6
7364074,-3,8,1,-3,-4,-2,-8,-9
7364074,-5,-7,0,-1,-3,0,5,-2
7374074,12,5,-8,2,-3,-3,-1,1
7374074,-8,-3,-5,-1,-1,-3,11,-2
7388075,8,-3,2,-1,0,1,-12,10
7388075,15,0,-1,-2,-2,-2,-9,-2
7390075,-16,-6,-3,-1,0,0,15,0
7390075,2,-5,-9,-1,-1,-3,-15,-2
7402076,40,6,26,1,1,0,24,-6
7402076,-30,1,2,2,0,-2,-11,-4
7412186,6,1,3,-1,-2,-2,1,4
7412186,-4,2,-21,-2,-1,-2,4,-4
7425190,22,-5,11,-1,-1,0,-3,3
7425190,-5,5,2,-2,0,-2,8,3
7435221,7,-7,-30,-5,-1,-2,-11,-5
7435221,15,10,4,0,0,1,-5,2
7449220,-31,-5,-3,-4,-3,-3,0,-3
7449220,8,-7,-8,-2,-1,1,1,-4
7451185,-12,13,14,-2,-3,-1,5,2
7451185,0,-14,-4,3,0,-1,-4,-5
7463282,-5,4,-7,1,-2,-1,0,-2
7463282,-8,-4,1,0,2,1,5,9
7471284,36,-7,1,6,3,2,-4,3
7471284,-19,7,2,-15,-15,-6,-8,-7
7484572,-26,-13,-9,-5,-7,-4,-17,-10
7484572,45,2,-2,8,4,-3,-4,-7
7494311,-23,-4,5,-8,-7,1,24,9
7494311,8,-5,-5,28,13,0,5,-6
7508292,-6,7,-4,-11,2,0,2,3
7508292,7,0,-2,-17,-10,-4,-10,-5
7510286,-13,-10,0,1,7,-2,-16,-6
7510286,-11,-8,-6,-2,0,1,16,1
7522287,18,1,40,-8,-10,-3,3,7
7522287,-8,18,-12,15,9,0,-14,-3
7531286,-2,-11,4,-27,-3,0,-5,-1
7531286,3,-14,-5,27,10,2,23,14
7544796,66,-3,-7,-43,-23,-3,-26,-8
7544796,-55,9,-1,4,-8,-4,11,9
7555107,-15,4,17,20,10,5,14,7
7555107,11,1,-18,-4,-2,-2,-2,4
7568269,-10,4,2,11,9,2,11,-9
7568269,16,-4,-23,2,-1,-2,-6,-5
7575272,-3,6,-12,-2,-4,-3,-25,-6
7575272,-11,-14,14,-7,-1,-1,3,-2
7583309,-5,-2,-17,14,4,1,-7,7
7583309,-22,-11,12,-16,-8,-3,-13,-6
7591272,5,0,-10,6,5,-2,10,-1
7591272,4,3,6,-15,-3,0,-10,-5
7605110,-73,-4,-10,14,3,-1,9,0
7605110,15,-13,-6,-3,-2,-4,-27,0
7614308,11,4,14,-3,-9,1,63,1
7614308,-15,26,-6,-6,-6,-2,-13,-4
7629230,16,-30,-1,5,1,-4,-1,4
7629230,-6,-14,4,3,8,7,7,0
7635236,-9,2,-7,16,3,-3,-32,-7
7635236,11,-3,8,-25,-15,-5,-9,-6
7642877,-11,22,-10,4,2,2,9,1
7642877,9,2,-2,-10,-3,-2,-2,-6
7652180,12,-6,9,4,-3,-3,-6,-3
7652180,1,-2,0,7,6,0,1,-2
7664474,27,5,-8,-3,-1,-1,-3,1
7664474,-20,-13,4,1,-1,-2,9,5
7674304,-13,8,-7,-6,-7,-5,-27,-12
7674304,-13,4,3,2,2,0,27,12
7687187,4,2,0,-3,-3,-1,-3,-13
7687187,12,-3,6,-1,-2,-1,-18,2
7695306,-46,-3,-12,-7,1,1,38,2
7695306,-14,-12,-7,-7,-5,-4,-14,-17
7702194,-16,8,8,3,1,-1,7,9
7702194,20,-8,-1,-2,0,0,6,-4
7718306,14,-4,-5,-4,-5,-4,-33,-5
7718306,2,7,20,2,-1,-3,10,0
7724196,-11,-9,-27,2,3,-1,10,7
7724196,-13,-2,-26,-2,-2,-1,-5,-7
7734303,13,-13,-4,-5,-3,-3,-21,-3
7734303,19,12,7,-3,-1,0,7,-4
7748987,-19,-6,2,-2,-2,-3,-25,2
7748987,-6,0,3,-1,-3,-2,18,2
7754489,-1,7,-5,-1,-4,-3,5,0
7754489,6,-17,-12,-1,1,-1,-13,0
7772488,29,-1,5,3,1,-2,-11,-1
7772488,-12,4,3,-3,-3,-4,-5,-9
7773517,2,-6,1,-3,-1,0,11,2
7773517,7,7,-1,-3,-3,0,-3,-3
7784775,-8,-9,-11,-1,-1,-2,-2,-4
7784775,2,-6,5,0,-1,0,-1,4
7794490,5,2,1,1,2,-1,-9,-1
7794490,-3,-3,4,-1,-4,-3,-9,-1
7808490,-2,-3,5,-3,-3,-1,8,1
7808490,2,6,-15,-5,0,0,3,-5
7814702,-7,10,15,-1,-3,-5,-10,-1
7814702,6,-12,-8,0,-1,0,-1,-11
7831788,-2,6,11,3,2,-1,-3,-6
7831788,-5,4,14,4,-1,1,4,-2
7833494,6,-1,-8,-6,-4,-1,-2,-2
7833494,-8,3,1,-1,2,2,-4,2
7846188,-1,3,-1,2,2,-1,-2,0
7846188,6,3,6,-3,-4,-3,2,2
7854504,-3,-5,-12,-2,0,1,-1,0
7854504,-5,2,-6,-1,-3,-2,-4,-1
7868867,-2,-1,-5,2,3,2,4,-1
7868867,2,-1,3,-3,-1,-1,4,3
7874795,-1,-4,1,-2,-2,0,-6,-1
7874795,-26,-5,-6,-8,-4,-2,-8,6
7891555,4,-4,-1,-1,-5,-5,-9,-4
7891555,10,10,10,4,1,-1,4,-3
7893507,-36,-8,-7,-4,-2,-4,-4,8
7893507,3,2,-4,-1,1,0,4,-1
7904508,-10,-9,-5,-3,-4,-3,-17,-1
7904508,1,1,0,-1,-2,0,-15,-2
7914507,5,0,23,5,4,4,23,3
7914507,4,2,-4,1,0,-2,-7,-4
7928801,-3,-7,-6,-1,-2,0,2,-3
7928801,6,-3,3,1,0,-4,-27,0
7934508,5,0,-4,-1,-3,0,19,0
7934508,-1,-1,6,1,-2,-1,0,-4
7952191,27,13,1,-1,-2,-3,3,-1
7952191,-6,-15,-6,-3,-1,0,7,0
7953521,-11,-10,-1,-2,-1,-1,-14,-6
7953521,2,-3,-3,-1,-2,-2,10,1
7964738,-3,0,-6,-5,-3,-1,-2,2
7964738,1,11,8,3,5,3,21,0
7974558,-1,5,-7,-6,-7,-7,-10,0
7974558,13,-2,-3,1,1,-4,-12,-6
7996895,-10,-3,0,-3,0,4,15,3
7996895,-10,-4,0,3,0,-1,3,-2
7998524,17,0,-7,-1,0,1,-9,3
7998524,-19,7,-5,17,7,-1,4,4
8011562,5,-14,19,-24,-7,0,-6,-1
8011562,7,0,-33,-5,-8,-6,2,-5
8013527,-20,-8,-9,-3,-5,0,-3,-4
8013527,7,0,13,-4,-6,-2,-32,-13
8024528,-10,11,1,24,17,3,38,10
8024528,6,-4,4,7,-3,0,6,0
8034563,7,3,-3,-25,-7,-2,-17,-8
8034563,10,-11,-14,-4,2,2,15,2
8049041,4,-1,0,25,5,-1,-14,-12
8049041,-1,3,7,-13,-7,-3,-1,0
8055051,8,8,-3,5,-1,-3,-13,3
8055051,-11,-2,1,-5,-2,-2,20,3
8072204,38,3,-7,-2,-5,-4,-29,-8
8072204,-14,2,0,5,4,1,13,-1
8074207,5,-2,-6,31,7,0,-2,3
8074207,2,-12,-5,-47,-14,0,-4,4
8085211,-14,1,-10,1,-4,-1,-7,1
8085211,-24,-26,-2,-2,1,-3,-17,-5
8095163,4,-3,0,3,2,4,24,-2
8095163,41,5,-3,0,5,0,-6,8
8108205,-19,4,4,-2,-7,0,24,12
8108205,-2,6,11,-10,-8,-3,-14,-6
8117207,-5,-5,-6,8,11,0,-3,-8
8117207,0,2,10,2,-13,-2,-6,-8
8132202,-19,-9,-6,-16,-2,-4,-4,-1
8132202,-6,2,6,4,0,2,4,16
8134210,8,4,-3,2,4,-2,1,-2
8134210,-3,6,4,7,2,1,-3,3
8144978,-6,-9,-12,-3,-1,0,-12,-5
8144978,-6,-5,-5,7,1,-2,5,0
8155268,7,0,10,0,-3,-3,-29,-4
8155268,-39,-3,5,7,2,-1,27,2
8167485,-7,14,-15,-30,-7,-4,0,-2
8167485,2,-24,-3,9,0,2,-2,-6
8176269,12,1,-3,-9,-3,-1,-18,1
8176269,4,-7,4,5,-1,-2,16,2
8192270,-17,-8,6,4,-1,2,6,4
8192270,17,13,-4,-6,0,-2,6,-8
8193270,0,-2,-4,-7,-6,-4,-11,-1
8193270,-9,-6,-3,5,0,-2,-11,-7
8205526,12,11,8,1,-1,-1,-3,-6
8205526,1,-1,-3,-5,-3,-2,-8,1
8214271,-20,-4,6,-2,-4,0,15,-7
8214271,13,-6,-6,-3,0,-1,-6,11
8228271,9,-16,-22,-2,-3,-3,7,0
8228271,4,23,12,-5,-5,-3,-5,-3
8237273,-22,-3,14,1,1,-1,6,1
8237273,-2,-6,-13,-2,-3,-2,-3,-3
8251999,-3,2,2,-1,-4,-3,-6,-4
8251999,-3,-3,2,3,6,0,-3,6
8253280,4,2,-36,-10,-7,-1,13,-1
8253280,-2,1,3,1,-2,0,-12,-2
8264486,-19,-15,4,5,2,0,22,0
8264486,-3,-2,-11,-5,0,-1,-3,-6
8274286,21,-3,15,3,-3,-2,18,-2
8274286,-5,5,-13,-3,-3,-2,-15,-2
8287486,27,3,6,-17,0,-2,-1,-1
8287486,-72,-2,-1,5,-3,-2,-13,-13
8296287,-12,-4,-3,3,0,-1,1,8
8296287,-7,0,2,2,2,1,12,-6
8311324,0,5,3,4,0,-4,-10,-3
8311324,20,9,-11,-7,-1,-2,-7,-2
8313288,-5,-41,13,-8,-5,0,6,-4
8313288,-10,11,-20,6,2,-1,-1,1
8325289,3,7,0,3,-3,0,-13,0
8325289,8,-6,-7,-1,0,1,9,8
8334289,-5,15,-4,-4,-5,-1,-6,-4
8334289,7,-9,9,-3,-3,-4,-6,0
8348019,3,-9,-3,3,0,0,14,0
8348019,13,-3,-4,-3,-2,-5,-21,7
8356299,15,5,2,0,4,2,26,-2
8356299,-8,7,0,-2,-2,-1,-19,-3
8371369,12,-10,2,-2,0,2,15,2
8371369,11,-14,6,-4,-5,-2,-2,-2
8373300,-32,4,-12,-3,-1,-4,-19,3
8373300,-8,9,1,-7,-1,1,8,-3
8384503,8,-13,-6,4,-1,-2,-2,-3
8384503,24,-6,-10,-5,-6,-2,2,7
8399307,7,-1,-2,-5,-4,-3,-7,2
8399307,-2,-2,5,8,2,-1,7,-6
8407600,-15,5,-2,-2,-3,-1,-8,0
8407600,-6,-5,-5,-3,-2,-2,7,-7
8416304,-4,-1,7,0,-3,-4,-15,1
8416304,18,3,-13,-4,-1,1,-8,-5
8432304,11,-18,-26,-1,1,-2,-8,-1
8432304,-1,2,11,1,-2,-4,7,-2
8433305,3,8,0,0,1,1,-11,-1
8433305,6,-4,13,-1,-2,-2,-1,-2
8445314,-18,-7,2,-1,-4,2,38,0
8445314,3,8,1,-2,-1,-1,-5,-5
8454323,4,-5,-4,-2,1,-2,-2,-2
8454323,36,4,0,1,-1,2,0,1
8467620,-14,16,6,3,0,-3,-24,-1
8467620,-9,-14,-5,1,1,2,0,4
8476323,1,-2,5,-2,0,0,-14,-5
8476323,-3,-7,-4,-1,-2,-3,0,-2
8491657,0,15,4,-3,0,-1,7,0
8491657,-2,7,6,3,1,0,3,-3
8493324,6,-11,-11,-7,-6,-6,-7,0
8493324,3,-11,-2,-2,1,2,-3,-1
8504327,3,-6,9,-2,0,0,-7,5
8504327,6,4,-9,0,0,1,-1,3
8514326,-25,-2,-9,2,0,1,6,-6
8514326,-18,-5,-5,-3,-6,-5,-7,0
8527628,-8,11,9,-2,-3,-1,-3,-1
8527628,13,-2,-13,-4,0,-2,-4,-2
8536329,12,-1,3,1,0,-1,-8,-2
8536329,-19,4,0,-2,-1,0,25,-2
8551338,9,-7,-7,3,4,1,-16,-4
8551338,15,0,6,-1,-2,-1,-1,-5
8557649,-8,-3,-4,-5,-5,-3,4,0
8557649,-11,-1,0,1,0,-2,-15,-5
8565346,4,2,1,-4,-6,-7,-27,-2
8565346,-10,6,2,-1,5,4,51,4
8574347,14,-6,1,1,0,1,-3,-2
8574347,8,0,-4,0,-3,-3,-5,1
8597348,-11,-2,-1,-5,-1,-3,-9,-6
8597348,-4,-2,1,-2,-2,-4,-18,2
8598348,-3,-6,3,-1,-2,1,4,0
8598348,-10,-3,-3,-5,0,1,9,-1
8611349,1,2,-1,4,1,0,-2,-4
8611349,-11,-1,3,6,1,-2,-10,-2
8617652,0,-5,3,-9,3,-2,10,-2
8617652,8,6,-11,-7,-9,-2,7,4
8624356,-10,-4,0,2,0,0,-1,0
8624356,1,-6,2,-18,-8,-4,-22,-9
8634350,3,-4,-13,9,4,2,36,0
8634350,2,21,13,18,13,2,-14,-2
8648361,-13,-12,2,-10,-7,-5,3,-10
8648361,3,4,2,8,3,0,24,6
8656370,-3,-8,-16,-9,-4,-2,-21,-2
8656370,-8,6,4,-4,-2,-1,-7,-2
8670371,10,-10,-11,7,3,0,11,-3
8670371,-9,3,2,-4,-5,-2,-16,0
8678371,0,9,7,-2,-3,-3,-4,-9
8678371,14,-23,-24,-5,-3,0,5,4
8684658,-29,1,-1,3,3,1,-14,1
8684658,2,-10,1,-4,-7,-3,-11,-6
8694371,-14,19,7,0,0,3,33,4
8694371,12,-8,3,0,-1,-4,-6,6
8707379,5,5,-1,0,2,0,-9,-2
8707379,-7,-2,-7,-15,-1,0,-3,-2
8716373,-1,-3,4,14,-2,-3,-11,-2
8716373,-3,0,3,-18,5,1,0,-4
8731374,-13,-7,-6,3,-18,-7,-2,-8
8731374,4,-1,11,-7,-2,-1,0,-6
8737882,10,6,-5,22,4,-4,-26,0
8737882,-3,-1,11,-13,-7,3,37,3
8753387,4,10,-7,7,4,-1,-5,3
8753387,19,-4,-2,-39,-1,-2,-7,-4
8755409,-40,3,5,14,-7,-5,-13,-8
8755409,-6,-16,-3,8,1,-3,-4,0
8767728,19,5,-18,-7,3,2,-1,0
8767728,-14,-13,7,17,-4,-4,4,3
8776396,22,5,-3,-14,1,2,-8,4
8776396,-10,11,3,2,-4,-5,-12,-7
8790688,-23,-4,11,0,1,1,17,2
8790688,-8,1,-23,13,3,0,-6,0
8797695,1,-6,-2,-11,-7,-2,-2,6
8797695,8,-8,-5,2,-2,-2,-8,-6
8813405,31,5,17,3,2,-1,1,8
8813405,1,7,0,5,-1,-1,-1,-1
8815398,-3,-4,11,-7,-2,1,29,-1
8815398,11,-2,-26,4,-2,-2,-5,0
8827400,-9,-16,-4,-11,-4,-2,-5,-3
8827400,-4,-2,6,2,-1,-2,5,5
8836400,5,1,7,-2,4,-1,-17,-9
8836400,-19,7,-5,-2,-2,-1,7,-4
8851410,4,-17,-9,-6,-4,-5,12,0
8851410,-12,-3,-11,4,-1,-3,-7,-1
8857650,2,-6,-1,-1,1,-1,-7,-4
8857650,-14,3,15,-4,-4,-3,-11,-1
8873632,-5,13,-2,-3,9,1,-7,-10
8873632,0,-2,5,10,-11,0,5,-6
8875419,0,-4,-10,4,5,1,-7,-2
8875419,-3,-11,2,-2,0,-2,-11,-3
8887420,5,11,-5,-36,-1,1,15,5
8887420,-11,-4,3,45,2,-3,-3,-12
8896421,-1,-1,-9,-54,-7,1,1,-1
8896421,-1,6,4,43,1,-2,-5,0
8910703,-9,-17,0,-26,-6,0,-2,-4
8910703,-7,5,-7,32,19,-1,1,0
8917688,23,-2,-2,-55,-11,0,16,3
8917688,-2,5,-14,-10,-1,0,-14,-9
8933421,18,9,19,39,-6,-5,6,14
8933421,11,15,-23,-96,-11,3,3,10
8936422,15,-26,2,37,-3,-5,-17,-2
8936422,0,-2,12,-16,3,-2,22,4
8948149,-12,-2,-17,28,6,1,-7,-2
8948149,5,-2,12,-20,0,-2,-1,-4
8956445,-25,15,1,18,9,0,12,9
8956445,15,-9,-13,-28,-13,-1,-19,-1
8970506,-17,-8,3,18,8,-1,0,-7
8970506,46,-14,-7,13,0,2,-1,6
8977707,-56,13,-10,-6,-8,-3,3,3
8977707,2,-2,21,23,1,-2,0,-3
8993661,-5,10,-17,-19,-8,-1,-4,-3
8993661,-7,-22,18,9,6,0,-12,-6
8995447,17,-1,-9,-13,-6,0,-7,-6
8995447,-22,4,4,-1,0,-1,-22,-3
9007713,4,-5,-1,-6,-1,1,64,12
9007713,5,-3,7,-6,-9,-4,-6,-1
9016448,-10,-4,-1,17,11,-1,-7,-3
9016448,-8,-8,-2,6,-5,-3,1,-2
9030661,1,-2,-1,11,-3,-2,-29,-4
9030661,-12,5,-5,-6,-9,-2,3,-5
9038150,-29,3,4,2,-13,-4,4,-11
9038150,0,-2,-5,-11,7,3,13,2
9053462,-1,-4,6,3,-2,-1,-13,-4
9053462,-6,6,-7,9,4,0,9,2
9055472,-5,-10,0,2,1,-1,-22,-5
9055472,13,-1,-3,-6,-4,-2,-17,-6
9067776,-6,3,6,1,3,2,25,7
9067776,-12,12,-1,-1,-2,-1,-10,-8
9076509,29,-9,-2,-7,-2,-1,-5,6
9076509,-32,-5,-11,5,4,1,17,1
9090781,41,-7,28,-1,-9,-3,-16,-1
9090781,19,0,-20,-7,-3,-2,-14,0
9097517,-12,19,6,6,-3,-2,7,5
9097517,-5,-5,2,-8,-2,0,8,2
9113763,-2,5,-2,-11,-5,-7,-33,-14
9113763,-5,0,5,8,2,2,7,4
9115476,12,-12,-9,7,3,0,2,-1
9115476,40,0,3,-2,1,-2,-1,-1
9128476,-32,12,-2,-8,-4,-2,-10,-4
9128476,-8,6,9,7,-2,-1,-8,1
9136478,10,-18,-15,-2,2,0,28,-1
9136478,-1,-3,4,-5,-3,-2,-16,-1
9150986,13,7,-4,-3,-1,-1,31,9
9150986,-8,6,-24,0,0,-1,-25,-9
9157831,1,10,-2,-4,-6,-3,-7,-9
9157831,7,-8,-8,2,0,-1,3,-1
9173784,-1,9,1,-3,0,-1,-11,-3
9173784,-17,-29,-2,-3,-3,0,7,4
9175496,9,-4,1,-1,-4,-6,-8,4
9175496,-12,-4,-21,-2,-3,-2,-9,-10
9187506,-9,-2,0,-2,-1,-1,-9,-6
9187506,6,8,3,2,1,1,16,1
9196497,23,-1,0,2,0,-2,-11,-8
9196497,1,6,20,-1,-3,0,10,12
9210505,-16,-20,-8,-1,-2,-2,-11,-5
9210505,-10,0,0,0,-2,-1,9,-1
9217534,17,2,3,0,-3,-2,-3,-4
9217534,-16,0,-3,0,-1,-2,-3,-1
9233787,0,-9,-6,-8,-6,-2,-4,-4
9233787,-6,0,-1,-1,1,-1,0,-3
9235499,5,4,5,3,-1,0,-6,-3
9235499,-3,-2,3,0,-1,0,11,0
9248010,0,-4,-9,-4,-3,-2,-9,-4
9248010,-1,-3,6,-2,-2,-3,4,1
9256519,-3,2,-2,0,5,6,0,5
9256519,-5,-1,-2,-2,-1,-3,-2,-2
9271518,4,-1,-3,-1,-2,0,-1,0
9271518,-2,-6,-3,-6,0,-3,1,2
9277860,-9,1,4,6,2,-1,0,-1
9277860,-3,-8,-14,-2,-3,-1,-4,-4
9293806,-5,6,5,2,0,3,3,1
9293806,2,0,9,6,5,1,-1,1
9295520,3,1,-7,-10,-12,-5,-2,-2
9295520,-7,-6,8,0,-1,0,1,-6
9307560,4,-1,-8,-10,-3,-3,-15,-5
9307560,-24,0,-2,-3,-2,-6,-32,-5
9316522,-6,-13,-7,6,5,4,45,-3
9316522,20,16,10,-2,-5,0,-7,6
9330529,-15,-6,1,-1,-2,-3,-18,-4
9330529,3,-7,-3,-4,-3,0,10,-2
9337521,7,9,10,-2,1,-4,-15,-3
9337521,-1,-9,-5,3,-3,-5,2,-2
9353530,-9,0,-3,-4,-6,-1,2,-9
9353530,8,-5,0,3,-1,1,-4,10
9355536,6,0,-5,-5,-4,-5,-9,3
9355536,9,-2,-20,-5,2,3,12,-5
9367806,-10,3,11,4,0,-3,-18,-5
9367806,-3,-12,-10,-1,-1,0,18,1
9382803,1,4,4,0,0,-1,-8,3
9382803,-13,-2,1,1,-1,-4,-22,-2
9389758,4,-1,-5,1,2,2,47,5
9389758,7,5,-3,-2,0,0,2,-2
9399575,-36,-9,-4,-2,-1,-3,-14,-6
9399575,-2,2,8,-1,-2,-1,-12,4
9413748,26,-3,-5,-2,-2,-2,-5,-2
9413748,-19,5,6,1,-1,-2,5,-5
9415539,-5,-4,0,0,-1,-1,-3,0
9415539,-5,3,-1,-3,1,0,8,-1
9427545,16,-6,13,3,6,1,6,4
9427545,-8,1,-12,-3,-7,-1,-11,4
9436541,5,-1,2,1,3,-3,-10,-6
9436541,-14,-2,7,-12,-14,-2,5,-2
9450139,-1,-9,-4,-7,-5,-3,2,0
9450139,22,5,4,3,7,3,-9,-7
9459834,-5,6,4,11,7,2,1,0
9459834,17,0,2,17,7,2,6,2
9474140,-42,-17,-12,-8,5,-2,-8,0
9474140,-1,7,0,-27,-22,-4,0,7
9480122,3,-4,-2,-20,-11,-1,-10,-22
9480122,8,3,-10,-3,3,0,13,2
9487836,26,11,-9,9,7,1,-18,-5
9487836,15,-17,15,14,5,1,24,4
9496837,-32,-18,-11,2,-1,1,-13,19
9496837,-5,3,-8,21,4,-2,22,-8
9519134,2,0,13,-7,5,0,-7,4
9519134,-6,6,-14,-13,-20,-7,1,-8
9520838,6,5,0,-2,-1,-1,-6,3
9520838,-3,-10,-6,-3,0,-2,-16,-3
9534127,6,-9,0,9,3,-1,6,8
9534127,-19,5,10,0,5,0,-3,-6
9539850,3,1,1,-3,-1,-1,19,5
9539850,-11,-1,-7,-3,-2,-1,-21,0
9548176,0,-2,1,-7,-9,-2,10,0
9548176,3,2,-7,-1,1,-2,-4,-7
9556857,3,-10,-3,5,-2,-1,-12,-3
9556857,29,1,11,-5,1,-2,4,2
9571858,-12,5,-7,-3,-7,0,-23,-3
9571858,25,-7,6,6,2,0,21,2
9579857,-2,7,-3,-1,2,-1,-1,0
9579857,-12,-12,-1,-8,-6,-1,-23,-2
9593859,7,-3,9,-2,-6,0,10,-7
9593859,-5,14,-22,4,4,-3,-9,-7
9599865,-3,2,20,0,-1,-1,6,-3
9599865,-11,-16,-25,-8,-3,0,-5,-3
9617859,-8,-11,-6,-3,-5,-5,-9,0
9617859,-8,7,9,1,3,-2,-4,-3
9619859,5,0,1,6,-2,-2,6,-2
9619859,-33,-5,3,2,1,-2,-9,2
9629865,-13,2,-4,-14,-3,1,4,-8
9629865,6,2,-2,-3,-5,0,6,5
9639879,-2,6,-7,-8,-6,-3,-2,-8
9639879,10,-3,7,8,2,-1,12,0
9661886,0,0,-7,1,4,0,-1,1
9661886,14,-7,-1,-2,1,-2,-4,-6
9663921,0,5,-4,-2,-2,-2,2,15
9663921,11,0,11,-15,-9,-2,4,-8
9676922,1,3,-3,47,13,-2,-1,-3
9676922,-9,-15,-5,-46,-17,-4,-18,-4
9678887,55,5,-6,16,5,1,-18,8
9678887,-20,5,-1,-4,0,2,36,0
9689887,18,6,-3,-1,1,1,-18,-6
9689887,-3,6,18,14,6,-3,13,9
9699889,-3,-16,-36,-12,-2,-2,-12,-6
9699889,-4,5,4,-6,-3,-1,-15,-2
9713894,0,-2,6,-6,-1,2,5,0
9713894,-18,-9,-8,1,0,0,-4,2
9719889,-16,3,10,2,-4,-1,11,-14
9719889,51,-4,0,5,2,-1,-1,6
9736925,-65,4,-8,-7,-8,-4,-2,-4
9736925,3,-18,-2,5,0,-3,0,-3
9738934,-11,2,5,1,-1,0,8,1
9738934,-5,2,6,-5,-2,-2,-2,2
9749936,28,10,-1,10,9,4,-2,7
9749936,-16,-12,4,-7,-16,-2,-6,-7
9760144,13,1,6,-1,1,0,0,2
9760144,-7,4,-4,-3,0,2,14,3
9774143,18,-4,-2,-9,-4,0,-3,-1
9774143,-2,7,-7,6,11,2,15,-2
9780110,-5,-6,-1,2,-1,1,-10,-6
9780110,-8,17,-21,4,-3,-4,-17,-4
9796948,19,-18,3,22,7,-3,-5,-1
9796948,8,-1,12,-12,-7,0,-6,-6
9799073,-23,-1,-23,-10,-7,-4,0,-5
9799073,33,2,4,6,5,-4,-5,-2
9810121,-6,1,-2,-18,-15,0,2,-1
9810121,-7,-1,-8,8,7,-1,-22,-1
9819950,-3,-9,6,-9,-2,-1,9,10
9819950,1,-7,0,8,1,1,-10,3
9834156,7,6,-7,-16,-6,-5,9,-7
9834156,2,-1,8,18,8,3,-1,-3
9839956,4,-6,1,0,-1,-1,7,0
9839956,-14,0,-6,-4,2,2,2,-3
9857157,5,6,7,-10,-10,-2,-9,0
9857157,-7,-7,-6,-7,-1,0,22,1
9858964,-11,-1,3,13,5,2,1,-5
9858964,-20,-2,3,-10,-11,-6,-22,-2
9869965,-1,-9,2,-5,-2,1,2,-7
9869965,1,4,-6,5,-1,-1,3,-1
9880141,11,16,-1,-2,2,-2,-5,1
9880141,-6,-19,8,22,10,0,2,-4
9893966,-3,-12,-14,-19,-11,-2,-5,8
9893966,-48,7,4,-2,-4,-5,-18,-4
9899967,-11,-4,7,-7,-3,0,-1,-2
9899967,13,12,-7,-6,-4,1,2,0
9917101,-44,-6,10,5,4,-1,9,-2
9917101,-5,-23,-35,-8,-1,-2,-6,-6
9919021,2,17,22,8,-4,-1,2,-6
9919021,-17,0,10,-7,-3,-4,-2,-3
9929968,11,-3,-10,2,-1,0,-2,3
9929968,11,7,6,-3,-4,-2,4,1
9940089,-11,-8,0,-1,1,2,1,-7
9940089,-10,-10,-7,-11,-10,-4,-5,1
9954151,5,5,8,3,2,-2,0,-4
9954151,0,-7,-2,0,-3,-2,-9,6
9960156,0,1,-19,-3,-1,-2,6,-12
9960156,1,-1,4,6,5,-1,-2,-3
9976398,29,1,1,-11,-10,-1,6,1
9976398,-7,3,5,14,4,-1,-6,2
9978157,7,-7,-3,-5,0,-1,-2,1
9978157,-8,5,0,0,6,0,7,0
9989163,-8,-5,-9,-7,-15,-2,-2,2
9989163,-7,-14,3,1,4,-4,-19,-5
9999158,-5,-5,-3,-19,-9,-3,22,21
9999158,1,-1,-4,1,-2,-1,-2,-9
10013194,-8,8,-5,11,8,-3,-2,3
10013194,9,2,6,-4,-14,-1,2,-5
10019159,-50,-11,-1,10,5,0,-10,-4
10019159,1,7,-14,-10,0,1,7,2
10036161,-12,-19,-4,-1,-3,-1,-7,10
10036161,13,4,3,-2,3,-2,4,-1
10038666,-1,-2,2,3,0,-2,-13,-17
10038666,8,3,0,-1,-4,0,-1,6
10049670,-37,13,-3,-3,2,1,-3,-10
10049670,18,-5,-7,3,6,2,-1,4
10059172,9,-8,7,24,0,-1,-7,2
10059172,-2,-1,5,-50,-15,-3,-3,-8
10073173,5,-1,-4,13,0,-1,18,-3
10073173,-32,2,-3,-9,-1,0,2,-2
10079173,12,-7,-5,11,2,-2,-5,-3
10079173,-6,-2,-6,-7,6,-1,-3,-1
10096174,15,-1,5,3,-11,-1,-4,-2
10096174,21,4,0,-8,-4,-2,-3,2
10098174,35,2,-7,-19,-2,-3,-9,11
10098174,-25,0,11,26,3,5,36,-4
10109175,6,2,5,-8,6,3,-2,4
10109175,3,8,-4,40,14,1,-2,-15
10119177,-9,-6,-1,-20,-13,-3,-13,-4
10119177,5,-8,8,-2,-10,-6,-20,1
10133176,-11,6,-17,-14,4,2,14,-2
10133176,2,-8,1,5,2,0,4,2
10139687,6,0,-6,-1,2,0,3,0
10139687,7,-2,-6,4,-3,-4,-19,-5
10156196,-20,-9,10,3,-1,-3,1,-14
10156196,5,20,11,-10,-1,-1,-6,-1
10158196,5,-5,-9,-17,2,1,-3,5
10158196,-14,-21,-2,4,-8,-3,-4,-1
10169196,4,-7,0,4,3,-5,-11,-5
10169196,14,-3,-11,2,5,3,3,4
10179197,-11,12,9,-38,-18,-4,2,-11
10179197,6,0,-5,17,1,2,0,-4
10193197,-7,3,8,-8,-4,-4,-18,-8
10193197,-5,-2,-4,-5,-5,-3,2,2
10199203,10,-1,-2,12,7,1,13,-3
10199203,11,-1,-7,-2,3,-2,-14,1
10217199,1,-1,-3,-1,2,-2,6,4
10217199,-15,2,0,-7,-9,-1,-22,-2
10219199,6,-10,-1,5,-1,-3,-2,2
10219199,15,-6,1,-7,-2,1,5,-5
10229460,-14,6,9,15,5,-1,-6,4
10229460,6,5,-1,-6,-1,-1,-5,-1
10239754,-4,1,25,-19,-5,-1,-2,1
10239754,-23,-1,-38,7,-4,-3,-1,0
10253968,19,5,-7,2,6,2,-14,-1
10253968,16,5,14,-8,-5,-1,22,3
10260506,-15,-21,-10,16,11,2,4,-9
10260506,-25,-1,5,-15,-11,-6,-11,0
10276476,73,3,-5,5,1,3,13,2
10276476,-36,2,0,-3,-2,-1,13,11
10278262,-7,2,-23,10,4,1,-7,7
10278262,-9,-2,6,-11,-1,2,6,-7
10289456,15,-3,-10,0,-6,-4,-9,3
10289456,-8,-7,6,-4,0,-2,-9,-18
10299263,-2,5,-1,3,-4,-4,-4,-1
10299263,-6,-6,2,-3,0,-2,9,3
10313533,-20,-2,5,-2,1,3,12,0
10313533,-14,-3,-4,7,5,1,-14,-1
10319265,15,2,4,2,-9,-4,33,-10
10319265,-3,10,2,4,4,1,-15,-11
10336266,15,1,3,-4,1,-1,-9,4
10336266,-41,-15,6,-4,-7,-5,7,0
10338770,-47,-9,-56,-1,1,1,-22,-5
10338770,11,10,7,3,3,3,24,7
10351017,-18,5,14,-1,-5,-8,-3,-9
10351017,7,-7,-12,-6,0,3,-6,5
10359214,25,6,12,0,-5,-4,-12,6
10359214,-2,8,7,-1,1,-1,5,-10
10373992,-15,-10,-11,-5,-2,-3,-17,0
10373992,11,2,-11,-6,-3,0,28,-2
10380992,0,3,11,4,1,0,0,-3
10380992,2,-8,-8,2,0,-4,-16,1
10395993,-27,-2,-4,-4,-4,-3,7,-5
10395993,35,14,20,-1,-6,0,3,12
10402993,-8,-11,-14,3,-1,0,-8,-1
10402993,5,-6,-5,-5,-2,-2,3,-1
10420994,-13,4,-1,-2,0,-1,-23,-2
10420994,8,-13,-5,1,-2,-4,-3,4
10421993,0,-5,4,-5,-4,0,3,-3
10421993,-31,-1,18,2,-2,-5,-14,-2
10434139,6,1,-12,-6,-4,0,-6,-3
10434139,-38,-4,-14,3,3,2,5,-26
10439923,46,1,9,-3,-5,-5,-10,5
10439923,9,-1,-3,3,1,0,0,0
10455425,-1,0,36,3,1,2,-1,1
10455425,4,4,-2,-2,-2,-2,16,1
10462695,-12,3,12,2,-1,-4,-7,-7
10462695,0,-2,1,-1,-2,1,-1,-2
10469430,2,-1,-8,-1,1,-1,16,3
10469430,12,-2,-4,-1,-3,-4,-21,-4
10479448,-7,-11,-2,-3,0,-2,7,0
10479448,8,-1,-5,0,0,-1,-1,5
10493730,-1,-6,0,0,-1,0,11,0
10493730,7,1,-15,-5,-3,-5,-9,-1
10499646,-8,4,6,1,1,4,9,2
10499646,5,-1,9,-3,-1,-1,-6,0
10515440,2,-3,-2,-3,-4,-3,-3,-3
10515440,7,-6,0,-4,-2,-2,-3,-1
10522769,-28,6,4,1,-1,0,1,-2
10522769,5,-5,8,0,-2,-1,-5,-1
10529440,-4,-1,-27,-3,0,-1,3,0
10529440,12,-2,-14,-2,-2,1,-1,6
10539965,5,9,23,0,-3,-2,-4,-3
10539965,-6,2,2,-1,0,-2,0,0
10553967,14,4,-1,-5,-6,-4,1,-2
10553967,-29,-14,-3,1,2,-4,-16,2
10559481,-10,1,-9,-4,-2,0,-4,-2
10559481,3,-6,-9,0,-1,2,-3,7
10575475,26,11,1,1,-1,-2,19,-6
10575475,-15,5,10,0,-1,-2,-24,-3
10582510,16,-13,-27,-1,3,2,58,6
10582510,-7,6,-2,0,-2,-1,-1,0
10598476,2,-3,-9,-6,-5,-1,-9,-4
10598476,21,3,10,3,-1,0,-15,-5
10600476,4,-1,-3,-4,-4,-7,-13,-6
10600476,-11,-5,-12,-2,0,1,-1,-1
10612517,-17,-6,-2,1,0,-1,2,4
10612517,2,-8,6,-7,-2,1,12,-3
10627484,-10,5,-4,2,1,-3,-12,-1
10627484,3,9,-2,-4,-3,-3,4,0
10635478,-15,-12,-2,-1,0,1,-11,-2
10635478,-5,-7,1,28,15,2,0,-6
10642498,14,-9,-15,-35,-11,-1,-1,1
10642498,-19,10,6,2,-10,-5,1,-5
10658507,-13,3,0,3,6,-1,-7,1
10658507,12,-5,-13,-11,-9,-1,10,-2
10660507,-2,-2,18,2,4,2,19,4
10660507,16,-4,-27,-13,-10,-2,-5,-5
10672727,-10,-4,-4,3,0,-1,-9,-4
10672727,12,7,-3,-3,4,-2,-16,1
10681506,-18,0,1,25,3,2,-10,-7
10681506,27,-8,-2,-37,-8,2,4,14
10695704,-13,-1,0,3,-6,-6,-7,6
10695704,-7,5,-11,2,0,0,-6,-5
10702509,-8,-5,10,11,1,0,-13,-12
10702509,-11,-6,14,15,8,0,-2,-4
10718711,5,7,1,-2,0,-1,2,3
10718711,47,-5,-4,-29,-5,-1,-10,2
10720509,-39,-2,-11,3,-9,-5,-4,-9
10720509,-6,-12,6,10,5,-1,-4,-5
10732752,2,0,-4,-11,-1,1,17,12
10732752,21,11,20,11,-2,-3,19,7
10741714,1,-1,-16,-5,-2,-1,-14,-11
10741714,13,2,-5,2,0,-3,-8,-1
10755261,-3,-19,1,1,-6,-2,-26,-7
10755261,-18,3,-15,-3,-2,-1,24,-6
10762462,15,8,3,4,6,2,-8,11
10762462,-11,-10,-8,-12,-10,-3,3,1
10779267,11,10,2,-2,-1,-3,-18,-1
10779267,-12,-19,-5,-4,-7,-4,-6,-2
10780268,13,4,1,-5,2,-3,-2,1
10780268,0,5,-6,10,3,0,-3,-5
10793269,-8,-8,0,-1,-2,-2,8,-5
10793269,-8,-11,-3,3,1,0,2,1
10801269,8,-2,-1,-26,-5,-1,2,-2
10801269,13,5,0,10,-1,0,1,1
10815271,-21,20,18,5,2,1,12,0
10815271,-3,3,-2,-1,-3,-3,-8,0
10822270,-25,-5,2,1,1,-4,-4,6
10822270,-12,-8,-7,2,2,0,1,-13
10838271,19,-3,-12,-8,-7,-4,3,-3
10838271,-7,-7,10,5,0,-2,2,0
10840809,9,-1,-20,3,0,-3,-1,1
10840809,0,-14,5,-2,3,0,2,3
10852776,-13,-13,-7,5,-4,-2,1,-9
10852776,-7,7,7,-5,-3,-1,-10,2
10861495,10,11,0,-3,-7,-3,-3,5
10861495,0,-1,6,-2,3,-1,-6,-3
10875729,1,11,-7,3,4,4,23,3
10875729,-23,-26,-6,-10,-6,-4,-7,0
10882762,14,0,8,2,-2,-2,0,-3
10882762,-6,3,-5,17,5,-1,-1,1
10906503,-11,-7,1,-21,-11,-4,-19,-9
10906503,9,13,-4,2,0,1,-3,0
10908498,-12,-9,3,5,5,0,-3,-1
10908498,9,9,5,-4,-5,-1,-7,-1
10912727,34,-4,-5,-5,1,1,4,7
10912727,-33,0,4,8,0,-3,-8,-6
10921498,-5,-1,-9,-2,-7,-2,-7,1
10921498,-4,-13,-8,-4,2,-1,10,1
10935500,4,4,-1,-5,-2,-1,-6,-3
10935500,9,-7,-5,-7,-1,-1,4,1
10942951,7,7,9,5,3,-5,-11,-1
10942951,-1,3,3,-6,-10,0,17,10
10960304,-12,-9,-3,5,5,-1,-6,-2
10960304,-6,4,1,-8,-8,0,16,-3
10962304,15,1,-1,3,-2,0,1,-3
10962304,-6,-7,-2,-6,1,-1,-6,0
10972305,-6,0,0,2,2,-1,-13,-4
10972305,22,-7,-3,12,4,0,8,0
10981305,-24,-9,2,-5,0,2,34,7
10981305,12,14,2,-3,-1,2,-5,-1
10996306,-23,-14,2,2,-1,-1,-7,-9
10996306,6,14,-2,-3,-2,-3,-5,0
11003309,19,-6,3,-4,-5,-3,-11,-3
11003309,-9,-9,-3,0,-1,-3,-3,1
11019308,-4,4,-1,2,0,-1,4,-4
11019308,-8,-5,3,-7,-2,0,-9,-2
11020310,4,18,21,3,-3,0,0,-1
11020310,7,-15,-16,2,1,-1,-1,-1
11032310,4,-3,-1,-2,0,-3,-2,-2
11032310,1,3,-4,-11,3,1,7,-4
11047888,-1,-3,-2,-8,-18,-6,-8,5
11047888,-3,5,4,-3,1,-3,-3,-8
11055615,-1,-8,-2,-6,-1,4,9,14
11055615,12,7,-2,5,3,-1,-2,-12
11062907,0,-2,-5,7,7,1,-10,-3
11062907,-22,-3,1,-6,-6,-3,-3,-10
11078904,4,-8,-7,0,-3,-7,-29,-4
11078904,-15,1,1,3,2,6,66,14
11080623,37,4,-4,-1,0,0,-11,-2
11080623,-17,-6,-3,2,-2,-1,0,-3
11092908,17,13,4,1,2,-1,-7,-6
11092908,-35,-14,-4,-2,-7,-4,-21,2
11101625,-41,-16,-10,-9,-1,-3,1,0
11101625,12,7,3,1,-4,0,1,2
11115625,3,5,3,-5,-4,1,12,-3
11115625,-4,-10,-5,-1,-4,-3,-15,-8
11122632,0,7,0,9,2,1,4,-4
11122632,-3,3,5,-20,0,0,-10,0
11138631,-20,-11,-13,2,-8,-2,15,-9
11138631,28,8,-1,-6,-7,-5,-17,2
11140627,-9,-17,-12,-7,3,0,5,-2
11140627,2,2,16,6,2,0,1,-3
11152638,2,2,-17,-4,-1,0,8,2
11152638,-7,-2,1,2,3,-1,-24,-6
11161143,4,1,5,-2,-9,2,19,-7
11161143,11,1,-2,0,-3,-3,-10,-1
11183149,-24,-4,7,2,2,1,1,1
11183149,4,6,-3,4,3,-1,9,5
11185144,-20,-3,-5,-2,-1,-4,-18,11
11185144,2,-4,-3,3,-1,1,8,-5
11198145,3,6,2,-4,0,-2,-3,8
11198145,-12,-13,-3,-1,-2,-2,-9,-12
11200145,34,7,5,-2,5,2,1,-3
11200145,-5,-5,-9,-1,-7,-4,0,0
11212146,10,6,17,22,6,-3,-3,1
11212146,-7,-9,-9,-26,-10,-2,0,-4
11221146,-5,2,5,-4,-2,0,8,0
11221146,4,-3,-7,5,3,-2,-7,-1
11235344,8,-5,12,8,4,1,-1,-9
11235344,17,-6,-23,-3,-11,-2,4,-1
11243095,-22,-2,-2,-5,7,-1,-9,-11
11243095,-6,4,4,-19,-19,-4,-10,-1
11259096,-1,-8,-8,2,2,-1,4,1
11259096,1,4,8,-1,2,0,1,4
11261094,20,-1,-4,13,3,-3,-5,-4
11261094,1,6,-5,-14,2,-1,-14,2
11273093,-4,0,-9,-14,-15,-5,23,-13
11273093,-9,-5,4,16,5,0,-7,-1
11282091,9,-6,8,-5,-6,-1,-2,1
11282091,2,-3,-4,7,8,-2,7,-2
11295082,4,-8,-10,-4,-3,-2,-9,-1
11295082,-2,10,7,-5,2,1,-7,17
11303077,20,6,-5,3,-1,-2,2,-12
11303077,-15,-12,-6,1,0,-1,-1,-3
11327111,2,13,8,-5,0,0,-1,1
11327111,-6,-3,0,7,-1,0,2,-1
11328076,-17,-12,12,-2,-1,2,-4,1
11328076,6,8,-16,5,1,0,5,-4
11333109,-1,-2,5,-3,-2,-1,-2,3
11333109,7,0,-3,-1,2,-2,-7,-16
11341837,-14,1,4,-4,-5,-2,-2,-7
11341837,10,4,4,1,2,3,10,5
11356150,-6,-5,-8,-5,4,0,7,4
11356150,5,3,8,13,-9,-3,2,-4
11363182,-18,-8,-13,-3,0,-3,-9,-2
11363182,7,5,0,-3,-7,-3,-18,3
11379184,-36,-13,-7,21,14,3,13,1
11379184,-34,0,-4,-32,-20,-2,4,3
11385180,19,10,-2,0,5,-3,-6,-3
11385180,-10,-2,-3,5,-1,-2,6,-1
11393183,3,-10,3,1,-4,-3,-25,-2
11393183,10,13,1,-6,5,-1,3,-6
11401160,-11,-10,-5,11,-1,-2,5,8
11401160,-2,3,8,0,-2,-3,-4,0
11415167,10,-4,7,-8,-2,-1,-12,-7
11415167,0,2,-9,2,1,0,10,1
11422161,-14,1,0,-12,-6,-4,-4,-3
11422161,20,1,-3,15,12,9,14,19
11439160,14,2,0,-12,-12,-2,0,-3
11439160,-1,-7,0,2,5,-1,-4,7
11462680,4,-2,-1,-1,-2,-2,-2,0
11462680,-17,-4,2,-3,0,2,10,-1
11463387,8,-2,-3,-4,-6,-2,9,2
11463387,32,3,9,12,5,-1,-12,0
11465387,-45,-7,-4,-6,-3,-2,-8,-4
11465387,-21,7,-3,4,3,-5,-9,-6
11475674,13,-13,-11,-39,3,1,-18,1
11475674,-58,5,8,11,-23,-4,5,-3
11482687,8,-3,-6,9,8,1,-16,-10
11482687,15,-5,-5,-21,-10,-3,9,-3
11499389,-9,12,-1,12,8,0,-17,-4
11499389,-7,-16,-9,6,4,-1,-2,-8
11505391,14,4,-3,-12,-7,-3,-8,4
11505391,-22,-3,0,7,1,0,-1,-2
11513391,9,8,-2,5,-5,1,10,-3
11513391,8,-7,-9,-5,7,0,5,0
11521393,-6,3,4,-4,-10,-3,4,3
11521393,43,2,2,0,1,-2,-1,-8
11535675,-30,-9,1,3,-3,-2,2,3
11535675,14,13,-9,-9,-2,-2,-5,-3
11543211,-3,-2,2,7,4,1,2,-1
11543211,-12,-9,-14,-6,-5,-5,-15,5
11558307,39,13,7,0,-1,-1,16,-2
11558307,15,-7,9,2,5,-1,9,-2
11566176,-54,-2,-10,-4,-11,-5,16,11
11566176,2,-4,4,-1,0,-1,-6,-8
11582024,-7,-9,-6,3,0,-1,-4,2
11582024,-5,10,3,11,5,-3,-14,-3
11583025,3,4,4,-7,-2,-2,9,-16
11583025,9,-11,-5,-8,-6,-2,-4,-7
11604025,-50,-6,-2,-1,-2,-2,-2,-1
11604025,20,6,2,-6,1,1,-5,-3
11606026,1,0,-8,0,2,2,0,-1
11606026,-16,-11,3,2,-4,-3,-17,-3
11619063,14,16,12,-4,-5,-2,14,-5
11619063,-21,-15,-25,-3,0,0,-5,11
11625256,0,-4,2,-2,-4,0,-5,1
11625256,10,2,9,5,2,1,-3,-5
11642011,6,1,6,5,-1,-2,-1,0
11642011,-22,-10,-11,-9,-5,-2,-4,-4
11643780,12,13,-6,2,2,-1,-2,6
11643780,-18,-24,-5,0,-2,-3,-11,0
11656017,-33,-5,-2,9,4,-4,-11,-4
11656017,12,4,7,-11,-12,-1,4,-2
11662471,14,-3,-16,-1,4,1,-6,0
11662471,-8,5,1,-3,-1,-1,3,-6
11679256,30,3,-7,-6,-3,-1,5,16
11679256,-3,-1,4,13,5,0,0,0
11685593,-4,5,5,-10,-9,-5,-10,-7
11685593,34,-1,-7,1,-1,-2,-4,5
11701265,0,-6,0,-4,-1,0,-2,-9
11701265,-13,-5,6,-5,1,-2,-8,3
11703259,36,6,1,2,1,-1,-2,-1
11703259,-6,15,8,0,-2,-1,-1,-1
11716258,-6,-20,-11,-4,-3,-3,-2,-2
11716258,2,13,18,-5,-3,-5,-13,-13
11722548,18,-11,-7,1,1,2,8,11
11722548,-13,-20,21,3,0,0,13,0
11739260,9,5,5,-3,-4,-4,-6,-2
11739260,0,-14,-7,0,-2,-2,-17,-5
11746058,18,4,4,1,1,1,6,2
11746058,-2,8,-16,-5,-3,-1,10,0
11761942,17,4,3,1,-3,-2,-2,-3
11761942,-7,-19,-12,0,0,-1,-5,-5
11763647,-4,-9,3,0,-1,-2,-4,-5
11763647,2,5,-9,-2,1,1,7,2
11775949,-30,2,11,1,-2,-2,-6,-2
11775949,13,-3,-24,-6,-2,-3,-3,-1
11782940,-22,2,4,3,1,0,5,0
11782940,5,2,0,0,0,-3,1,-4
11798650,-6,-6,-13,-8,-7,-1,-8,0
11798650,2,4,22,1,2,1,12,3
11805652,-4,-8,-22,-1,-5,-2,0,-2
11805652,-20,1,-3,2,0,-1,-4,0
11821950,12,2,-8,-2,-1,0,1,5
11821950,7,-3,12,-6,-1,-4,6,-1
11823651,0,6,5,1,1,-1,-1,-2
11823651,-5,-3,-3,-3,-2,-1,-4,-4
11835762,-10,2,-3,0,2,1,0,-2
11835762,12,6,-1,1,-2,0,5,0
11842941,-13,-8,-1,-3,-2,-1,-1,-2
11842941,-6,-5,8,-1,-1,0,-2,-5
11859099,12,-1,-2,-1,2,1,1,-4
11859099,-5,1,-8,0,1,2,-3,1
11866103,3,3,1,0,0,-1,0,0
11866103,-24,-6,-6,-3,-3,-4,0,-2
11882103,-5,-15,1,0,-5,-1,-3,-4
11882103,0,3,1,1,3,1,1,2
11883806,-5,-6,-2,-1,-1,0,-4,-8
11883806,2,11,1,2,0,-3,-7,2
11895773,-5,1,-3,-1,-2,-1,5,-1
11895773,34,-2,-4,1,-2,0,-22,-3
11904773,-19,-5,1,17,5,-2,20,6
11904773,2,-2,-1,-17,-3,-1,1,0
11919095,-3,6,20,-26,-7,-6,-9,-2
11919095,-16,-10,-12,6,-5,-4,-13,-16
11925781,3,-4,-1,21,12,1,-7,-4
11925781,-1,5,-5,-45,-28,-7,-2,-10
11941781,1,2,-1,8,1,2,-13,9
11941781,-6,-11,-1,-15,1,-2,20,-2
11943799,-5,-12,-8,-46,-13,-2,-13,-17
11943799,8,11,11,39,15,2,5,3
11956065,-23,-8,-16,-8,-11,-5,1,0
11956065,14,8,4,4,1,-3,-3,-6
11965098,-15,5,-11,0,-2,1,-3,11
11965098,27,0,7,-2,-5,-2,32,-13
11979090,6,-13,-12,0,-3,-3,-8,12
11979090,2,-3,-3,-7,6,2,9,7
11985264,-31,-8,8,5,-9,-5,-19,2
11985264,2,7,-27,-4,-5,-3,-12,-7
12002090,17,3,-34,10,10,5,9,-4
12002090,2,-1,6,-2,-8,-3,3,-1
12003034,-4,0,-2,-9,-4,-2,-4,3
12003034,-9,-10,2,4,4,0,-13,4
12015043,7,2,0,-1,1,-3,-9,-9
12015043,-9,-10,1,11,0,-3,-1,3
12024037,35,9,1,-2,-1,1,2,2
12024037,-25,-5,4,5,3,0,-2,-2
12039088,-5,3,2,-5,-2,-4,9,-2
12039088,-11,11,1,-8,-5,-1,-1,2
12046030,7,1,6,4,3,-1,5,-10
12046030,1,-19,-4,-6,-1,-1,0,4
12062025,-2,3,-2,3,1,0,1,0
12062025,-4,0,-2,-5,-8,-2,3,-5
12063758,-6,0,1,5,0,-1,1,1
12063758,-4,1,-6,-2,1,1,-6,2
12076096,6,1,10,4,6,1,0,-2
12076096,19,8,-5,-4,-6,-2,-6,2
12084761,-33,-4,0,-4,-3,-2,-20,-2
12084761,5,-4,0,-6,-2,-2,25,-7
12098803,-21,-13,2,2,2,1,31,-19
12098803,22,8,17,5,1,0,-1,7
12105762,-32,3,-7,-6,-2,-2,-3,-9
12105762,-4,-11,-5,2,-1,-2,-6,9
12121763,18,7,3,9,1,0,-19,-8
12121763,-14,0,-15,-5,0,-1,6,-1
12123763,-28,0,13,-9,-2,1,-2,0
12123763,-12,-13,-1,15,4,-3,-7,7
12135762,7,6,-2,1,3,0,5,4
12135762,-9,-8,-4,-6,-10,-3,-4,0
12145085,26,5,1,-3,-5,-1,4,11
12145085,-2,0,-5,17,7,-5,-8,-9
12158198,-7,-6,2,-19,-11,1,-3,1
12158198,13,0,-2,5,6,0,2,-5
12165463,-25,-4,-4,-3,0,-4,3,5
12165463,1,7,-3,6,7,3,-5,0
12181430,-1,13,1,7,-8,-7,-14,-4
12181430,-15,-19,-4,-2,2,3,39,-1
12183203,36,-6,-4,-2,0,-1,13,-2
12183203,10,-3,0,-6,-3,0,-13,16
12195212,-10,3,-4,-3,2,3,24,-5
12195212,-6,7,2,-2,0,-1,-17,8
12204204,-7,-8,-5,6,0,-2,-2,-26
12204204,-6,7,3,-11,-1,-1,1,1
12219204,6,-9,-10,-5,-9,-4,-21,0
12219204,-3,14,16,5,-1,-4,-4,2
12225246,14,-12,0,-3,-2,-3,4,-5
12225246,4,13,4,0,-1,2,-7,-8
12242206,-43,-8,1,-5,-4,-4,-1,2
12242206,3,-10,-3,4,2,2,-3,-3
12243711,-18,0,-4,1,1,-2,-2,-1
12243711,-7,-2,0,-6,-5,-1,-2,-5
12255979,8,10,1,2,1,-1,-2,3
12255979,-27,-8,-9,-9,-1,-1,11,-1
12264433,23,-9,-12,1,-1,-2,-4,2
12264433,-13,-7,4,20,3,-3,-35,-1
12278663,11,-5,-1,-15,-4,3,34,-1
12278663,-21,6,-1,-8,-4,-4,-14,-4
12285655,12,-3,4,3,1,-1,-10,-1
12285655,2,4,-10,-12,-9,-2,28,1
12300653,-6,-15,-4,3,4,-3,-25,-7
12300653,19,5,6,2,3,1,6,4
12307436,-32,6,0,6,-3,0,9,0
12307436,9,4,5,-10,-5,-3,-10,0
12315478,-5,-11,-27,1,0,-2,0,-3
12315478,23,-13,-5,-7,-4,1,23,14
12324436,15,5,-2,-1,1,-4,-16,0
12324436,2,15,19,-2,-2,2,11,-10
12338438,3,-13,-37,-2,0,-2,-8,2
12338438,0,-6,-6,8,3,-2,-6,-6
12346031,25,-4,-2,-6,-7,-3,-3,6
12346031,-2,8,-7,-2,1,-1,9,2
12360853,7,-10,20,-2,-3,-3,-23,-3
12360853,-13,4,-8,12,4,-3,-16,-6
12369573,23,1,0,-30,-7,3,14,-5
12369573,5,-3,-5,1,-4,-3,-1,-9
12375578,6,5,-1,1,3,1,10,7
12375578,-20,-3,-6,6,-4,-4,-25,-7
12384572,-3,2,14,13,0,1,-1,0
12384572,20,-7,-7,-7,-2,-2,-12,2
12398577,-24,7,1,-3,0,-1,2,-12
12398577,-10,-6,10,-8,-1,1,-12,-3
12405578,3,-17,-5,0,0,-2,15,1
12405578,-30,7,18,-7,-5,1,2,1
12420573,14,-5,-25,9,2,-1,-9,9
12420573,-9,8,2,-5,0,0,0,-12
12427574,40,7,-2,5,2,1,-4,1
12427574,-73,-24,-16,-4,-4,-2,-9,-11
12435574,-5,18,25,1,1,-1,-5,9
12435574,23,-4,-7,-5,-4,-1,1,3
12444580,4,7,-16,24,8,2,29,3
12444580,24,-3,2,-27,-9,-1,-5,-4
12458582,17,0,-3,-3,-5,-4,-16,-3
12458582,-45,-12,-6,6,1,-3,-3,-5
12465591,7,2,2,2,1,-1,-13,1
12465591,21,-6,18,5,3,3,-1,5
12480587,-1,-10,-17,-9,-5,-2,4,-8
12480587,-27,4,-4,-9,-10,-2,18,3
12487588,-4,20,12,-4,0,-1,-4,0
12487588,-8,-4,-8,9,3,-1,1,1
12503589,39,0,15,-4,1,2,1,-6
12503589,-1,-5,-14,0,1,-1,-6,-8
12505589,-15,-13,0,3,0,-3,-14,4
12505589,4,1,-12,-12,-16,-5,-1,4
12518788,-7,0,9,4,2,-1,0,0
12518788,15,11,12,-8,1,1,-9,2
12525788,0,-8,1,-3,-1,0,-1,-4
12525788,10,-9,-17,-1,2,-4,-2,-2
12541787,-34,17,21,5,-2,-3,-12,-12
12541787,-10,-9,-13,1,-1,-1,14,0
12548047,13,-8,-2,-10,0,-1,-8,-5
12548047,14,3,8,-8,-7,-1,-2,2
12563765,4,0,-27,4,1,0,8,4
12563765,-6,10,4,0,1,-1,-8,-1
12565786,-17,-4,-7,-2,-3,-1,-19,1
12565786,-17,-16,7,0,5,2,32,3
12578761,-15,-1,16,1,-2,0,7,1
12578761,53,17,-1,-7,-1,0,-13,10
12585684,-6,-3,-5,12,1,-1,-10,-5
12585684,-2,-1,-19,1,4,-2,-12,-4
12600769,-18,-16,7,-1,-8,-1,6,5
12600769,-10,-1,2,-3,-1,-2,-7,-4
12607575,45,16,9,-10,-4,-2,-6,6
12607575,-20,-19,-42,5,3,5,26,4
12623576,4,-2,13,8,2,-4,-16,-6
12623576,9,-6,2,-8,-7,-2,28,5
12625576,-25,-1,-4,0,-3,-3,-2,-1
12625576,5,1,10,11,5,-2,-8,-2
12638570,-11,6,-11,-9,-6,-3,-1,2
12638570,0,-16,-5,0,-1,-1,-12,-6
12646171,-55,-1,10,-5,0,-2,-24,-3
12646171,6,6,11,1,-5,2,73,5
12660649,15,-2,0,24,11,1,-3,-1
12660649,-24,3,22,-22,-12,-5,-5,-3
12667648,29,-17,-28,1,-1,0,-9,-2
12667648,-33,11,0,-8,-5,-7,-17,-10
12683435,-7,-6,-5,2,1,0,-5,2
12683435,24,11,5,7,4,1,10,-4
12685366,15,-21,-5,-5,-2,1,9,-4
12685366,11,0,7,-2,-1,-3,-29,3
12698408,4,22,11,-6,0,-1,7,3
12698408,-5,0,-9,4,1,-1,-12,-5
12712375,-11,12,2,-9,-2,3,9,-4
12712375,7,-4,-8,5,3,-2,-24,-3
12720369,-3,-11,5,-3,-6,-2,-6,3
12720369,6,-5,-14,1,0,0,1,-4
12727375,-59,4,11,3,-3,-5,6,6
12727375,-2,-4,-11,-12,-9,-1,-2,-5
12743940,30,6,1,-11,-2,0,-21,-4
12743940,-42,-10,-4,0,2,0,30,12
12745657,-1,-14,-12,-2,-8,-5,-2,-10
12745657,-3,-3,13,5,4,-2,-7,-3
12760140,11,-14,-10,-17,-8,-7,-7,8
12760140,6,4,-1,7,2,-2,-23,-2
12766140,3,11,10,-1,0,-1,-1,-1
12766140,11,7,0,-5,-3,2,27,7
12780972,-17,-8,-10,3,-1,0,21,-6
12780972,7,-11,-2,5,3,0,-10,-5
12787973,-10,2,7,-3,-8,-2,16,-2
12787973,24,3,-2,3,0,-3,-20,-3
12803973,-64,-3,-1,-4,1,2,5,1
12803973,16,3,-7,-4,-2,-3,-6,-4
12804974,2,-17,-3,-8,-4,0,3,-6
12804974,0,-2,0,5,3,-1,-15,-5
12819137,12,6,-14,-6,-5,1,6,1
12819137,46,-5,-2,3,0,2,-2,-1
12825975,10,4,5,2,2,-1,1,3
12825975,2,8,-5,18,7,-1,-5,-11
12840975,19,1,-3,-30,-10,-4,-1,-1
12840975,-4,2,-5,0,-3,-3,-9,-3
12849485,5,-5,-15,6,2,-1,5,2
12849485,8,-3,6,0,-6,-1,-13,2
12863499,5,0,4,5,3,1,5,-4
12863499,-13,-17,-9,-6,0,3,7,2
12865493,-5,19,9,-6,0,-1,-5,-2
12865493,-5,0,-7,-2,3,-3,4,-1
12878499,7,-5,-1,1,-7,0,-6,-10
12878499,-48,-5,1,-6,-3,-2,-5,-5
12885494,5,-16,-10,-2,-1,-2,-2,3
12885494,-16,5,22,-2,0,-1,-5,1
12900496,12,13,-5,-1,-1,-4,1,3
12900496,-2,-13,-5,9,1,-2,-6,2
12907494,11,5,0,-1,1,1,25,6
12907494,-3,9,15,-8,-5,-1,-7,-10
12924495,4,-19,0,2,2,-1,-3,5
12924495,4,12,0,1,1,-2,-3,-4
12926495,-11,-7,-5,-6,-3,0,15,-13
12926495,19,5,-12,-3,-3,-1,10,17
12938500,1,3,13,6,4,2,-2,-4
12938500,2,11,-7,-7,-3,0,-4,-9
12945515,24,-11,7,5,6,0,-6,0
12945515,-3,-19,-9,-5,-5,-1,-7,-4
12960526,-10,9,-22,-3,-2,-3,-11,-5
12960526,-3,-12,4,-4,-3,-3,-6,-2
12967526,-2,10,8,12,4,2,6,1
12967526,-13,-4,-23,-27,-8,-4,-8,-3
12983567,3,-8,-12,11,-2,-4,-3,-5
12983567,7,4,7,-4,-1,1,11,-1
12991529,-22,7,-2,-4,-1,-3,-14,-2
12991529,20,-10,-3,2,4,0,-5,-2
12997533,-3,-2,-1,0,0,-2,-4,-4
12997533,-7,-2,-7,-12,-11,-5,16,1
13006725,-2,5,-2,-6,-2,1,-9,-2
13006725,-6,9,10,13,0,-1,1,3
13020529,-14,-1,-2,-6,-2,-1,-7,1
13020529,4,-13,3,10,2,-4,-9,1
13027778,-7,-8,-8,-7,-5,-3,1,7
13027778,3,7,7,2,0,0,-6,-2
13043949,-28,-7,14,2,-1,-4,-10,-5
13043949,5,4,-1,-1,3,4,31,2
13045983,-4,-3,-9,2,-3,-1,5,-2
13045983,-1,1,-8,-5,-1,-1,-5,-6
13058239,-13,-7,23,3,-1,-2,-6,-2
13058239,-1,3,-14,-6,-2,0,8,8
13066247,-6,-1,-11,-6,-7,-4,-15,-5
13066247,-14,1,-1,6,5,1,4,17
13081247,-11,3,19,1,3,2,-3,4
13081247,2,-1,-1,10,0,-2,-15,-7
13087248,18,-7,-8,-10,-6,0,-1,-4
13087248,-8,-5,0,-5,-2,-4,-7,0
13104250,18,-7,-13,-3,-3,-1,-1,-4
13104250,-10,2,2,-3,0,0,-9,-1
13106249,9,-4,10,0,1,0,34,-1
13106249,-57,1,7,-3,-2,-2,-7,1
13126466,25,-8,-6,-5,-1,-2,-1,-5
13126466,24,0,3,22,4,-2,-10,0
13128249,-13,3,-1,-17,-6,1,4,-5
13128249,-2,-4,10,0,0,0,7,-6
13140465,6,-7,-26,-1,1,1,11,-6
13140465,-15,1,3,-2,-3,-4,-10,-5
13148071,22,-10,15,-3,3,0,-5,-5
13148071,8,-2,-12,1,-7,1,2,1
13163897,-5,10,6,8,0,-2,2,3
13163897,6,-7,6,-7,2,1,-4,2
13165941,-13,0,-9,0,-2,-6,-12,-4
13165941,5,-8,-6,-8,-1,0,-16,-10
13177913,9,-4,-6,-5,-4,-1,-4,0
13177913,-64,-1,-6,-5,-3,-2,7,0
13186685,7,3,-5,2,1,0,-16,-2
13186685,-24,-7,17,6,1,-1,-10,-7
13200919,2,7,-16,-5,0,2,20,12
13200919,-7,15,9,-4,-1,-1,-8,-3
13207691,-3,-3,-2,1,-2,-3,-8,0
13207691,9,-13,-6,-1,-2,-2,-3,-1
13224951,-11,-1,-15,1,3,1,3,-5
13224951,28,7,18,-6,-5,-3,-13,-7
13226918,4,15,2,0,-4,1,-7,6
13226918,25,-11,-29,5,2,-2,15,-8
13237912,-5,0,-6,-21,0,0,8,6
13237912,4,-17,7,2,-12,-4,-3,-3
13246408,-13,-1,-3,3,2,-1,-15,4
13246408,51,12,13,-8,-5,-5,5,4
13260918,-30,-13,-11,3,-1,-1,-5,-5
13260918,13,14,-19,-1,3,0,19,5
13266924,-2,13,4,-2,-2,-3,2,-12
13266924,-15,-2,-16,5,4,4,-4,5
13284035,-28,-7,14,-1,-5,-4,4,-5
13284035,53,-7,4,0,1,2,3,4
13291029,-33,-5,-3,3,0,1,9,-1
13291029,10,2,-12,-1,1,0,-7,3
13298121,12,0,5,0,-1,-1,-15,-1
13298121,-19,-3,20,-7,-4,-5,-1,-3
13305922,-3,3,-28,4,4,-2,-3,-9
13305922,9,-4,12,-1,-7,-3,-4,-4
13320924,7,8,7,-2,1,0,5,-7
13320924,-3,-11,-31,-5,-1,-2,-7,-3
13326923,2,-4,22,7,4,2,-2,0
13326923,6,1,2,-5,-7,-2,-4,-3
13343867,-15,6,-12,-1,-4,-1,1,1
13343867,-18,-8,-1,-5,-2,-5,-11,-1
13350874,23,-7,-8,10,3,-1,-1,0
13350874,-12,3,-6,-28,-4,1,32,-6
13357866,2,3,13,2,-8,-5,-8,6
13357866,-19,-13,-7,7,4,1,-2,5
13366621,6,1,-2,-4,-6,-3,1,-1
13366621,-11,-8,8,4,3,-3,0,-3
13380575,24,10,-7,1,2,0,-15,-7
13380575,-37,-2,4,-5,-3,-2,0,2
13387364,-3,0,-7,-6,0,1,-1,8
13387364,-12,12,-6,3,-2,-2,0,-2
13403365,3,-2,13,1,3,2,3,-2
13403365,23,19,-14,0,-3,1,-15,-2
13410406,1,-18,11,-6,2,-1,9,1
13410406,-13,-4,-2,-5,-2,-2,-16,-10
13417600,18,-2,23,5,0,-1,8,10
13417600,10,8,-2,0,0,-3,-6,-7
13426366,-10,-2,-2,-6,-3,-4,-20,-10
13426366,10,4,-3,-1,-3,1,9,8
13440583,5,-10,8,5,3,-4,-6,-5
13440583,4,-9,-5,-4,1,1,-9,-5
13448094,14,4,-6,-8,-6,-2,2,4
13448094,-43,-13,-4,12,3,-4,-21,-5
13464102,-4,12,-8,-4,-3,3,6,-1
13464102,-3,-13,3,-2,-1,-1,4,-2
13470103,2,6,-4,-12,-4,-1,-16,-5
13470103,1,1,-1,21,4,1,23,7
13486104,-3,-15,-1,-6,-4,-6,-2,-30
13486104,-7,4,-2,4,1,1,14,-4
13488105,-5,-14,4,-4,-5,-1,-2,-3
13488105,16,9,0,-9,-1,-1,0,4
13500111,-7,-3,-6,1,-3,-4,-7,5
13500111,-9,-3,-3,-2,0,1,-6,-2
13508103,-9,-5,4,3,5,-1,12,-1
13508103,0,9,-1,-9,-7,-6,-14,-2
13523105,-3,1,7,0,-1,2,13,3
13523105,-7,1,-6,-3,-2,0,3,-1
13531104,-13,2,-24,4,-1,0,-1,4
13531104,1,-17,32,-7,-5,-1,-1,-4
13547004,51,-3,-18,-8,-1,-1,-9,9
13547004,6,5,14,3,-6,-5,0,-3
13549036,-6,11,8,5,3,-1,7,1
13549036,9,3,-28,-5,-1,3,-15,-4
13560774,-15,-22,-11,-4,-3,-3,6,-3
13560774,20,6,9,-5,-1,-1,0,1
13567768,5,6,-2,2,-3,-3,-5,-11
13567768,-2,-8,6,17,4,-2,-6,-2
13583776,-6,4,-8,-36,-9,4,-7,2
13583776,-10,-5,-8,6,-1,-1,-1,1
13590770,0,-2,5,1,0,-1,3,2
13590770,6,-9,14,-4,-5,-2,3,-4
13606556,-65,-2,-24,6,5,1,-3,-11
13606556,14,2,0,3,0,-2,4,4
13608556,0,4,3,-11,-8,-4,-18,-5
13608556,13,1,2,-2,2,2,8,-1
13620557,5,-7,9,19,3,-3,0,3
13620557,0,-1,-6,-9,-6,-2,-10,-2
13627563,-1,-9,-4,-3,-2,0,-5,3
13627563,-9,12,-17,-9,1,2,4,1
13643842,-3,-13,22,5,-4,-3,-1,0
13643842,0,-1,-12,-5,-1,0,4,-3
13651102,-5,-12,5,5,0,-1,1,3
13651102,-3,10,-28,-6,-4,-1,0,-1
13667104,9,7,4,-6,-2,0,0,-7
13667104,-17,-5,4,8,2,-2,-4,2
13668865,8,0,-1,-4,0,1,11,-3
13668865,18,-5,1,-1,0,-2,-3,-4
13682071,-10,10,2,31,8,2,-1,5
13682071,2,-2,-12,-29,-13,-4,-12,-2
13687860,-3,-2,-3,3,-2,-4,-2,6
13687860,-4,4,2,-3,3,4,15,-1
13703861,2,-6,2,4,2,0,4,4
13703861,-3,-5,6,-7,1,-1,-3,-7
13710868,26,12,0,5,-2,0,-14,0
13710868,-58,-20,2,11,2,1,28,-7
13727107,11,4,-13,-20,-7,-3,-5,-4
13727107,-21,-4,-1,0,0,-1,-1,-4
13728862,0,17,7,-5,-3,-2,0,-2
13728862,11,-21,-6,-2,-1,-1,-16,-2
13742105,-33,0,-4,-4,-3,-4,-12,-11
13742105,13,-4,0,3,0,-1,18,9
13755657,-5,-3,-1,-2,-4,-3,-4,-5
13755657,0,0,5,-2,-4,-4,-19,-2
13763751,18,8,-3,-2,0,1,3,5
13763751,31,9,8,1,-1,-2,-5,-2
13770461,-16,-9,-2,-11,2,1,5,-1
13770461,14,6,11,7,0,-3,-7,-3
13786450,0,-12,-3,-9,-5,0,2,2
13786450,-7,10,2,10,3,2,-1,1
13788450,-1,-7,-9,-3,0,-1,4,-5
13788450,6,7,6,-2,3,-1,-2,0
13800457,-9,-9,-4,-5,-7,-4,-6,0
13800457,-5,-6,-5,-1,-1,0,11,-4
13807450,-5,-2,-6,-4,1,1,-14,-2
13807450,-13,1,-1,14,2,-2,15,6
13824451,6,12,-6,-12,-9,-1,-9,7
13824451,5,-10,7,-6,-6,0,-5,-2
13830456,1,-6,0,-3,-5,-2,6,11
13830456,-10,11,-7,6,4,-2,-10,-4
13846459,18,-22,13,2,3,-3,-22,-6
13846459,-50,-1,-15,4,0,-1,35,3
13848458,4,2,2,4,0,-1,-8,1
13848458,-4,-10,-4,-11,-5,-2,17,-4
13860460,3,8,-11,-6,-5,-5,-1,6
13860460,39,-14,-2,-6,0,-2,-15,-3
13867470,-19,0,6,4,1,-1,7,-8
13867470,28,-2,-7,-7,-2,-2,-16,4
13883476,-15,4,7,-1,-1,-2,18,-5
13883476,6,7,-1,3,-2,0,-3,0
13890471,5,1,-4,-2,-4,-4,-1,0
13890471,2,-7,3,-9,-6,0,-9,-2
13906472,11,5,-2,9,6,1,0,1
13906472,-18,-1,-9,-9,-1,-1,9,2
13908472,3,-5,-2,6,1,-1,-4,-3
13908472,-9,-2,4,5,-4,-4,-4,-4
13920478,-1,5,-6,0,0,-1,4,-3
13920478,18,-5,13,-25,-3,-3,-11,4
13929482,-54,-13,-4,-2,-6,-1,-9,-8
13929482,-2,7,-2,-13,2,2,1,-2
13951680,8,-15,-5,-2,-12,-1,10,4
13951680,-22,16,-4,7,5,-2,-14,-5
13953919,23,-5,2,-9,-1,1,-2,2
13953919,20,-12,-25,1,0,-3,-17,-1
13966943,-19,9,10,9,4,1,-5,-1
13966943,-11,-1,-5,-6,-5,0,12,0
13968941,4,6,1,9,1,-3,-8,-6
13968941,-17,-2,-1,-9,-4,-2,14,-3
13980942,17,-4,2,4,2,1,-12,3
13980942,8,1,-5,15,2,3,-5,-7
13989950,8,5,1,-4,0,-2,-3,3
13989950,3,1,0,-5,-6,-2,-3,0
14003698,-6,-2,-4,-9,-2,-4,-1,-7
14003698,-6,-7,-1,0,-2,-2,-3,2
14010940,15,-1,-4,6,0,1,-6,0
14010940,-53,-2,3,-12,-4,-3,-7,-5
14026698,7,2,-3,2,2,-2,4,4
14026698,-11,-13,-14,-1,-4,-5,7,0
14028943,6,2,-2,-4,-1,4,2,-5
14028943,12,5,2,2,3,2,1,1
14040945,-3,22,1,0,0,-1,-13,-16
14040945,0,-10,5,7,4,-4,-14,-6
14050022,-15,-20,-34,-10,-12,-5,12,5
14050022,3,-8,7,0,-3,0,-4,-1
14063864,3,-4,3,38,7,0,5,0
14063864,12,13,6,-39,-5,1,-17,-4
14070632,-10,7,2,5,6,-1,11,-10
14070632,26,-4,-1,2,-1,-3,-6,-2
14086665,-20,-6,-5,-8,-3,1,11,20
14086665,-8,5,6,10,2,0,-1,-8
14088633,5,4,7,-1,0,-3,-6,0
14088633,2,4,-8,-3,1,1,-3,-2
14100646,17,-2,-15,-15,-3,-4,-20,0
14100646,-16,-15,4,9,-4,-2,0,-6
14109634,-6,10,3,-11,-1,1,11,3
14109634,-3,-7,1,6,-1,-1,3,-3
14123677,-7,6,11,-5,-2,-1,1,4
14123677,25,-21,-11,0,0,1,-2,2
14130971,-11,1,-8,2,-2,-2,-2,-7
14130971,3,9,13,-3,-2,-2,-3,2
14146930,-11,-8,-9,-16,-7,-6,-5,-1
14146930,-10,8,16,21,4,1,-1,1
14148426,23,0,-10,-1,3,1,7,0
14148426,-4,2,7,8,1,-2,1,1
14160928,-15,1,1,-13,-10,-2,5,-9
14160928,-13,-10,-4,1,4,-2,-6,4
14169095,38,4,0,-3,-3,0,19,2
14169095,-4,6,-5,0,2,2,-9,2
14184094,6,-14,0,11,-1,3,37,3
14184094,-25,0,3,-12,-11,-5,-9,-14
14191092,10,4,7,1,1,-2,-14,0
14191092,2,-8,-10,-5,-1,-4,-8,-4
14205938,-1,3,4,3,3,0,-4,-6
14205938,27,3,-8,-3,1,0,-2,4
14213091,-29,-9,7,1,-2,-3,0,2
14213091,-14,-6,-7,0,-4,-2,3,-3
14219940,14,-2,-1,-7,-1,-2,-9,-2
14219940,-33,4,5,14,6,2,0,-2
14229050,6,3,-1,-6,-8,-4,-13,1
14229050,-8,2,-4,-5,-1,2,16,0
14244087,9,-2,0,-6,-1,-1,-5,3
14244087,14,-4,-10,-11,-5,-2,1,-11
14251022,-15,-12,-13,10,4,-1,-4,-2
14251022,-10,-3,11,-1,-2,-2,3,4
