timestamp,emg1,emg2,emg3,emg4,emg5,emg6,emg7,emg8
168567,0,-2,6,2,-3,-3,-9,-13
168567,2,3,6,-7,-9,-3,4,2
169547,4,-2,-12,-11,-4,-1,-4,-7
169547,-2,-1,12,48,-1,-5,-4,0
170527,-11,-3,2,-35,1,0,0,1
170527,1,-20,-19,19,7,0,1,-5
171027,-4,12,-6,-17,-9,-2,-4,1
171027,14,1,-39,-3,3,4,0,5
181073,-6,-6,10,10,0,-2,1,-4
181073,11,-5,-12,-5,-5,-2,-4,-1
189033,-2,7,12,33,4,-6,2,0
189033,-2,-23,0,-41,-11,2,1,-2
197033,-2,6,-11,0,3,2,3,2
197033,-5,-4,15,-17,-6,-3,-11,-2
211075,-3,3,3,9,-3,-2,22,-5
211075,5,13,11,1,6,-3,0,-1
222035,10,-3,4,-1,-3,-1,1,0
222035,-15,-3,-1,-1,3,1,-1,0
226035,3,1,0,-3,2,-1,-5,-3
226035,-10,-2,-12,-11,-5,-3,-4,-3
241071,2,0,-7,1,-1,-2,0,2
241071,-1,5,-8,-8,-4,-5,-10,-1
249036,-3,-2,1,-7,0,-1,-4,1
249036,-27,-10,-2,7,3,3,-6,-3
287049,3,7,36,-19,3,3,1,0
287049,7,-18,0,28,1,0,5,0
295050,-1,3,-41,-52,-13,-3,1,-1
295050,-2,5,2,32,8,-2,-2,1
296050,-6,-6,-6,-31,-12,-1,-11,-9
296050,1,-2,15,12,3,-1,3,-6
297050,-10,-4,3,8,2,-3,-10,4
297050,0,-4,-2,-1,-1,-1,20,1
300055,1,4,-16,1,-1,-2,2,2
300055,-2,2,6,-1,1,-1,-10,-5
308264,-2,-6,-5,-5,-3,1,5,-4
308264,0,-2,-2,-11,1,-1,3,0
317051,19,-4,-3,18,-3,-5,1,-1
317051,-11,1,6,-12,-4,0,5,0
330153,18,-7,8,5,1,0,-6,0
330153,-1,5,0,-9,-4,-2,-9,1
340052,4,-1,-10,-3,0,-4,1,0
340052,8,-10,31,2,0,-1,-1,-1
345256,-11,9,-11,42,8,0,-2,1
345256,9,-18,-23,-38,-8,0,-1,-2
360896,-9,4,0,20,0,-4,-5,-3
360896,0,8,-7,-41,-11,0,-7,-2
369099,0,-2,14,9,-10,-3,1,-3
369099,-17,-10,-3,-2,1,0,-7,-1
377606,-7,8,-5,9,2,0,0,1
377606,-10,-14,-10,3,2,-2,-1,-1
390616,2,2,2,-3,4,-2,1,-6
390616,-1,1,15,-9,-7,-1,-6,0
400608,-4,3,6,11,-3,-1,1,-1
400608,3,9,-26,-16,-2,-3,-7,1
406619,-5,-5,2,-16,2,1,3,-2
406619,12,2,28,18,0,-3,-10,-3
429900,-3,-7,2,13,8,2,-4,-5
429900,-9,1,-6,-4,-7,-4,-4,-1
430872,3,-8,-19,-14,-3,-3,-2,4
430872,-10,13,-8,12,7,0,-5,-2
437610,2,-16,21,-11,-5,-2,10,4
437610,-2,6,-13,17,5,1,-1,-1
450837,-4,-1,33,7,1,-1,-1,-5
450837,-2,-5,-23,-8,4,0,-3,-2
460864,-4,-2,-12,-37,-5,-5,-6,0
460864,2,-2,4,14,-3,-2,0,-1
465854,8,1,2,13,-3,-2,3,13
465854,2,5,6,4,-3,1,-7,0
480129,-1,1,-11,23,16,3,7,1
480129,3,1,-4,-25,-22,-5,0,0
488130,-8,-2,-4,-2,-1,0,-2,4
488130,4,-1,-14,-19,0,1,-9,2
497129,-8,-2,-12,4,0,0,1,-1
497129,-1,-10,10,2,6,-2,-6,0
510130,-4,2,-14,1,-3,-4,-8,-4
510130,-2,11,22,35,-2,-2,7,-4
520131,0,-14,-11,-17,-5,-1,-3,0
520131,-6,-3,-26,-21,1,-2,3,-4
525131,-4,-2,7,-14,-8,-4,-3,-7
525131,15,-3,-2,3,-2,-3,-8,-2
540132,-4,6,7,9,3,2,9,2
540132,-6,13,10,5,4,3,4,-10
548172,-5,-14,-16,14,1,-1,-4,-4
548172,-4,0,-1,-46,-13,-2,0,-5
557642,2,2,-7,7,-13,-3,-5,-3
557642,1,-2,-6,-8,4,0,-1,4
571639,-5,4,8,11,8,0,2,-4
571639,-6,3,0,10,4,0,4,-1
580144,3,-10,-1,-17,-8,-2,1,-4
580144,3,1,20,28,4,0,-7,-1
594145,4,-3,-39,-42,-6,-2,-7,-2
594145,-6,-20,5,1,-3,-2,3,7
600145,5,8,-8,1,1,-2,-8,-5
600145,-4,-2,-11,5,-4,-3,3,0
608180,2,15,28,33,3,-3,-8,-4
608180,1,-5,-27,-34,-7,-2,19,0
617148,-6,-5,0,0,-5,-2,5,0
617148,-1,-6,-8,-10,1,0,1,-1
630146,-1,6,4,-2,0,2,4,2
630146,-7,8,-7,8,3,0,-5,-9
640147,-3,-3,14,8,0,0,-5,-1
640147,-2,-1,-13,-3,-4,-3,1,-2
654148,16,0,18,9,8,1,4,-2
654148,-11,2,-4,-29,-16,-5,-4,0
660902,0,-9,9,2,5,-2,-2,3
660902,-5,4,13,1,-1,-1,0,-3
668934,0,-6,4,8,-2,-3,-4,-2
668934,1,6,12,-8,1,0,-1,1
677159,-6,-6,-5,12,-5,0,-1,-2
677159,-1,-6,-14,-20,-3,0,1,3
698160,15,-1,-3,-13,-4,0,-2,-4
698160,1,1,7,35,6,0,5,-1
707161,-1,5,-4,-16,1,0,-2,0
707161,1,0,-2,5,1,0,-8,4
714161,-23,-10,-2,-3,-1,-3,1,-7
714161,-2,-10,-5,6,-5,-3,-4,-12
720162,0,1,1,8,0,-1,-6,-4
720162,3,7,15,2,1,0,5,-2
728162,-6,9,-31,-11,-2,0,1,-7
728162,-10,-17,-5,10,1,-2,-8,-1
737162,-11,-12,-2,-12,-8,-1,11,-1
737162,8,5,0,-1,-3,-2,3,8
750163,-12,3,15,-7,-3,-1,-2,-7
750163,16,8,-10,3,4,1,-6,1
760875,0,1,-4,1,0,-1,-3,-4
760875,3,-7,6,28,6,-2,-11,-1
774910,0,-1,-7,-39,-6,4,8,2
774910,2,3,1,1,-4,-1,3,-2
780876,-5,6,21,26,7,0,-7,-2
780876,-3,-12,-8,-28,-9,-5,-2,-3
788675,2,-7,4,11,3,-1,-1,2
788675,-4,3,-4,-5,-2,-3,0,2
797926,12,-4,-16,-12,-6,-4,-4,-10
797926,-10,7,13,43,14,-1,-4,-4
810677,2,-2,-10,-40,-13,-3,-1,1
810677,1,2,-2,2,-6,-3,-1,2
820677,-7,7,1,7,3,-2,1,-4
820677,8,-15,-29,-20,-6,-3,-1,4
834907,-1,-3,11,9,7,0,0,3
834907,-1,6,16,23,5,-2,-4,-2
840872,5,3,-9,-32,-13,-1,-12,-2
840872,-12,-3,1,-15,-2,-1,20,-5
848873,1,2,0,43,8,-1,-10,3
848873,-2,-24,15,-24,-3,-2,16,-1
857874,-15,5,-2,11,2,0,-7,-2
857874,5,-4,-17,4,-7,-1,-10,-4
870686,0,3,3,-21,0,-1,-1,-2
870686,-2,4,2,9,6,-1,-6,-1
880692,-9,-4,4,-6,-2,-2,9,4
880692,-2,3,11,7,0,0,-5,-5
894872,2,5,-4,-6,-7,-4,3,2
894872,-1,-3,-8,3,0,1,-8,-2
900693,-1,-11,-5,-17,-1,-3,-5,2
900693,0,2,-2,18,-2,1,3,1
908693,-8,-5,-13,-21,-3,-3,-3,0
908693,-3,3,17,11,2,-1,-3,-2
923693,-1,3,6,-1,-2,-2,1,0
923693,-3,-7,26,0,6,-1,-8,-9
930694,3,7,-6,10,-11,-2,5,3
930694,-8,3,-16,-17,-6,-2,-9,-1
940694,20,-4,-1,9,8,3,-7,-6
940694,0,13,-3,-9,-2,-1,19,1
954696,-3,-14,6,-1,-1,0,-2,-3
954696,9,1,-11,6,0,-3,-3,0
960703,-4,-6,4,-14,0,-2,0,4
960703,0,5,-4,-14,5,0,-7,1
968703,0,2,4,-6,-21,-2,0,-5
968703,-6,1,-23,1,1,-1,3,-1
983709,-5,-11,13,0,0,-1,-4,-3
983709,2,-1,-31,-1,-1,-3,-6,2
990709,4,0,1,15,10,1,-1,-2
990709,-6,1,-17,-15,-5,-2,-7,-3
1000709,1,5,2,10,2,2,0,4
1000709,-4,-6,8,-6,1,3,6,3
1014710,-9,-15,-8,12,-3,-2,-4,-4
1014710,3,-4,9,0,1,1,5,1
1020711,-10,1,-23,-16,-4,-1,-7,1
1020711,2,-1,1,-10,-5,0,-3,1
1028711,4,7,-8,-2,2,1,-2,1
1028711,-3,-6,8,25,5,-1,4,-1
1043712,-7,-6,-14,-30,-1,-2,0,-5
1043712,-3,-7,-9,-29,-15,-5,-5,-3
1050713,0,-4,2,14,2,-2,-2,-2
1050713,1,3,12,-18,-12,-1,-12,-6
1060268,-1,3,-11,16,0,0,29,6
1060268,-3,-8,-11,0,3,-2,-9,-10
1074740,-7,3,12,7,5,-1,1,1
1074740,4,-3,3,2,3,2,-1,1
1080741,4,1,6,2,-3,-1,-7,-2
1080741,0,0,7,6,-5,-2,-1,-1
1088741,-9,-6,5,-7,0,-1,1,3
1088741,5,5,-21,-13,-3,-1,-1,-4
1103750,8,-5,3,11,-1,-3,-3,4
1103750,1,11,-16,3,1,-4,-5,-2
1110742,-2,-14,-3,-7,4,1,-6,-2
1110742,-8,-5,10,-18,-14,-3,0,-1
1120742,3,6,3,8,1,-2,7,-4
1120742,4,4,1,4,1,5,5,9
1133743,1,-5,26,13,2,-1,-6,-8
1133743,-1,-10,-14,1,6,-2,3,-6
1141744,-13,14,-12,-25,-17,-7,-11,-5
1141744,-11,3,4,23,7,2,-3,-4
1148744,18,-6,-1,-31,-6,0,6,5
1148744,-6,-7,7,36,-1,-1,-7,1
1163750,-1,-3,-2,-18,0,0,-3,0
1163750,-1,-4,-14,-2,-3,-3,-1,-3
1170251,-7,12,12,6,8,-1,-2,3
1170251,2,4,-1,-22,-8,0,-2,-1
1179761,-4,-3,0,22,3,-3,-1,-2
1179761,-3,2,3,-11,-8,-3,-2,-3
1193762,-6,-13,-19,0,-2,-2,-3,-2
1193762,-5,-7,7,35,12,-1,1,2
1202764,2,0,-5,-42,-10,-1,0,-1
1202764,0,-1,6,9,6,1,2,5
1207763,4,9,-10,0,-7,-3,-1,0
1207763,-8,-4,-16,-5,3,-3,-2,-2
1223870,-10,-4,6,13,2,-2,-3,2
1223870,11,3,11,-3,-4,-3,-8,-2
1230764,-8,-3,-17,-5,-2,-1,5,-3
1230764,6,1,6,-3,0,2,17,2
1240765,-2,0,4,11,0,-2,-8,-6
1240765,3,-7,-20,-19,-4,1,9,9
1253766,-8,-9,-19,5,-4,-1,-5,-8
1253766,1,5,22,-15,-2,-3,-11,-4
1262306,3,-1,-17,8,1,0,-1,-2
1262306,6,-2,21,7,-1,0,-4,-4
1275797,1,5,-3,1,1,1,-4,-2
1275797,-1,-2,-14,-8,-4,-1,-1,-1
1282793,10,-14,23,15,2,2,1,5
1282793,-8,-3,-3,-4,0,-2,-6,-1
1298794,2,4,3,2,0,-1,2,1
1298794,-3,3,-8,-11,-4,-2,-2,-2
1300793,6,1,11,41,2,0,0,-2
1300793,-2,-9,5,-37,8,1,0,0
1313879,6,5,10,0,-17,-4,-1,2
1313879,-2,-2,3,-7,-1,-2,-7,0
1321795,-1,-2,-17,-16,0,0,11,0
1321795,-11,5,3,42,13,0,0,-4
1335801,-6,-2,5,-14,2,-1,-5,-2
1335801,11,0,12,-2,-14,-5,-2,4
1342801,-20,-10,-1,9,2,0,-7,-2
1342801,-4,-9,-16,-9,-7,-1,12,-2
1359316,-3,5,0,-1,9,1,3,4
1359316,-4,-3,-11,0,0,0,-2,-3
1361316,-3,5,-2,-10,0,-1,-3,-12
1361316,-3,-1,-5,-1,-8,-4,-5,-1
1372818,-3,-4,8,0,-2,1,-2,-2
1372818,5,-3,-6,-4,0,1,3,0
1382879,-5,7,-18,-7,-3,-3,-7,1
1382879,-4,1,9,-3,-4,-2,-14,-14
1396914,-1,-12,3,-2,-3,-2,-2,-6
1396914,-9,14,-6,-2,0,-3,-2,-4
1405827,8,-26,5,21,6,3,2,0
1405827,6,4,11,-55,-9,-2,-2,2
1419879,-9,0,2,13,-10,-4,-1,-1
1419879,-15,-13,-10,5,3,0,1,-6
1421872,2,5,-1,-11,-3,-3,-13,1
1421872,2,-2,0,16,4,1,4,3
1433882,2,-4,-4,5,-6,-2,-5,-8
1433882,-3,1,-5,-23,-4,0,-3,1
1442910,4,5,9,8,-2,-1,3,-6
1442910,-6,-6,-9,0,-3,-3,-3,4
1456828,-1,6,-6,-8,3,-2,-9,0
1456828,-5,-1,14,12,3,3,22,-9
1463875,9,-16,-52,-30,-11,-5,0,3
1463875,-3,2,25,23,3,-1,-10,-4
1479993,-1,3,-13,-11,1,-1,1,0
1479993,0,6,6,18,2,0,-8,2
1480842,3,-5,-6,-16,-4,-1,2,0
1480842,-4,-4,-12,-8,-4,-2,1,-4
1493843,-2,0,16,28,9,0,-2,0
1493843,9,-1,-2,-2,0,-2,-3,3
1502000,-2,17,9,-12,0,2,-2,-7
1502000,-1,-3,-6,8,-5,0,4,-3
1516844,-2,0,-2,-22,0,0,2,-1
1516844,-2,-16,-6,5,-8,-1,-3,6
1523845,-8,11,8,0,0,-3,-6,-6
1523845,-4,-12,-2,-14,-3,-2,6,-3
1538845,-8,-3,-7,14,-4,-1,3,2
1538845,2,3,-12,-22,-4,-1,-5,-3
1540845,-5,-8,2,2,1,-2,-2,1
1540845,13,3,-9,16,2,-1,-5,4
1553845,2,13,25,-1,2,-2,0,-5
1553845,2,-4,-36,-8,-1,-1,-8,-5
1562360,-4,9,6,9,2,0,3,0
1562360,-1,-2,-1,17,-4,-2,-6,-1
1576874,1,-7,-23,-34,-3,-1,-1,0
1576874,-1,-5,37,26,-4,-2,0,-1
1582876,2,1,-17,-25,-1,-3,-4,0
1582876,-3,3,-6,-2,-2,-1,-2,-3
1598870,-1,-12,-5,7,2,0,1,-3
1598870,-1,2,5,12,7,2,2,3
1600871,-1,-8,-2,-2,-7,-3,2,-3
1600871,-10,2,8,-1,-4,0,-9,3
1612871,1,4,-9,3,-2,-2,6,-1
1612871,-2,-8,5,-3,-1,-3,-6,1
1621871,3,-7,3,-5,6,1,11,0
1621871,-5,3,15,-3,-24,-5,-7,0
1636901,-2,6,19,-1,2,1,-5,-3
1636901,-4,-12,-24,-28,-2,-1,2,-2
1642877,-7,5,9,17,6,0,-6,3
1642877,-1,-2,-13,15,8,0,3,-4
1667664,-1,4,23,-10,-6,1,0,1
1667664,5,0,-2,17,-3,-1,-1,0
1669701,-2,-6,2,-17,-2,-2,-6,-1
1669701,3,1,-6,-6,3,0,-2,-2
1673009,-1,-1,5,9,-2,-2,20,4
1673009,6,-5,-3,-10,2,0,0,-2
1682013,-12,-1,4,15,-6,-3,-11,-1
1682013,2,4,7,-4,-2,-1,-4,0
1696214,1,-9,-17,-8,-7,-4,-9,-5
1696214,-7,2,-5,-2,2,1,0,-2
1704014,-7,1,-5,-1,-1,-1,0,-1
1704014,10,5,0,1,4,1,2,-4
1719210,-2,-9,6,5,0,-2,-7,0
1719210,-3,1,-6,-6,-1,-1,-2,1
1721015,-2,3,5,1,-2,-1,2,-6
1721015,-8,2,-8,-5,2,-1,-2,-1
1742355,2,-9,-1,2,-6,-3,2,3
1742355,1,5,15,4,3,0,-1,-3
1744017,3,-3,-3,-25,-18,-5,0,-2
1744017,0,0,13,38,-4,-2,2,-1
1757036,1,-7,-37,-45,8,3,-6,0
1757036,-8,0,8,-5,-6,-3,-2,0
1763543,-3,2,0,13,7,-1,3,2
1763543,13,-11,-10,-5,1,0,-2,-7
1779404,1,9,6,21,1,-3,-4,-3
1779404,-5,-9,-10,-2,-3,-3,1,3
1781125,-1,-1,5,2,0,0,-20,-8
1781125,-3,4,-4,-13,-2,-1,28,0
1793425,-7,3,1,11,3,3,5,4
1793425,7,-4,-21,-17,-4,-3,-4,-2
1802126,2,-19,-9,10,3,-2,-2,0
1802126,-9,-3,11,-10,2,-3,-17,-2
1816133,-3,8,12,-2,0,0,-2,-3
1816133,1,16,-44,12,-1,-2,3,-2
1823128,5,-24,-5,-24,-3,-2,3,4
1823128,-2,1,-2,-2,-1,-2,-7,-2
1840128,0,-6,-8,5,-2,-1,2,0
1840128,-2,5,27,-1,-4,-2,-4,0
1841129,2,5,-7,5,0,0,3,-2
1841129,-4,-8,1,-16,-2,-3,-1,0
1853136,-3,-6,-20,4,-3,-2,-6,0
1853136,3,0,12,17,2,-3,0,-5
1862427,-20,5,-13,-26,6,1,4,-10
1862427,-5,-1,2,-13,-13,-1,0,7
1876945,1,-10,-4,6,-3,-3,-1,1
1876945,-3,-6,9,35,2,1,-3,-5
1882949,7,11,6,-13,0,0,12,5
1882949,-9,-10,-15,-5,-2,-3,-12,1
1898945,4,6,26,9,2,-2,-3,-2
1898945,-8,-3,-40,-14,-5,-3,-2,-9
1904944,-2,4,3,11,-4,-1,-4,3
1904944,-6,-6,-6,-9,-1,-1,2,4
1912945,4,5,2,18,-1,0,-1,1
1912945,-14,-5,6,-26,6,0,-1,-2
1921945,6,-3,-18,-18,-16,-3,-4,0
1921945,1,-1,-8,-7,5,-2,3,-14
1936981,-8,-6,-4,3,-6,-1,-1,-1
1936981,-1,7,10,-3,1,1,-3,1
1943979,-3,1,16,13,2,-3,1,-1
1943979,0,-4,3,8,2,-1,-10,-1
1959752,-5,-5,2,2,1,-2,-4,-5
1959752,-2,-8,3,3,-4,-3,0,5
1965752,10,16,18,-13,0,-2,-5,-4
1965752,7,-2,6,6,0,1,-5,-4
1973761,-14,-11,-9,-14,-3,-1,5,0
1973761,-4,-3,6,-5,0,1,-4,0
1982761,4,-11,9,38,-3,0,-2,10
1982761,2,6,-17,-37,0,-2,-2,-3
1996763,-18,0,-43,-41,-6,-4,-12,-3
1996763,5,-12,16,27,0,-2,3,-1
2003765,-6,2,4,16,-5,-2,-1,-1
2003765,2,-4,-5,7,3,1,-3,-1
2019904,12,-2,-11,-1,1,0,0,3
2019904,-2,1,-3,2,-2,0,2,-3
2025874,-1,-12,-13,-47,-3,-1,-1,-3
2025874,-2,7,28,36,-4,-2,5,1
2042906,1,8,-11,-37,-2,-3,-6,-5
2042906,4,-6,-16,-10,2,-1,4,3
2044872,-9,-7,7,29,-2,-3,-2,-2
2044872,0,2,0,4,2,0,3,2
2056906,4,5,13,33,5,0,-1,-1
2056906,5,0,4,8,-9,-2,-2,1
2063640,-2,-3,-15,-46,-2,2,4,-2
2063640,-3,-5,-6,6,2,-1,0,-4
2093931,-2,3,1,16,1,-1,-4,-1
2093931,5,1,7,29,8,0,4,0
2095925,-7,-10,3,22,-6,-5,-3,-6
2095925,-10,18,-32,-65,-1,-1,-7,0
2102157,24,-25,22,34,8,0,13,-1
2102157,-15,-11,-18,-17,-13,-1,5,-1
2103925,18,3,-22,-20,-1,-1,0,3
2103925,-14,-8,28,81,8,-1,-7,-10
2116925,2,17,0,23,-5,-2,-23,8
2116925,18,-4,-4,-26,-1,-2,11,-7
2123925,3,3,11,-10,-8,3,-1,6
2123925,4,1,-37,-57,-20,-4,5,3
2138928,-14,-6,34,15,14,1,-2,-7
2138928,-3,8,12,19,3,-1,-12,-7
2145940,14,2,-10,-2,6,1,-9,1
2145940,-37,-12,-1,-12,-12,-8,12,-1
2162447,-16,0,-6,-24,-8,-3,-8,-6
2162447,-5,16,-1,-6,3,-1,-18,2
2168453,-8,-8,6,37,5,0,5,-2
2168453,15,-25,-10,-39,2,2,0,3
2174957,-1,2,7,21,-4,-3,-2,-2
2174957,-7,1,-7,-53,-7,-3,-4,3
2184956,-4,17,28,22,4,-1,0,2
2184956,6,-2,-13,22,-2,-2,-5,-11
2199955,9,-7,-10,-15,-5,-3,2,-5
2199955,2,7,-7,-20,-1,1,16,-3
2205961,-6,-2,16,8,1,-1,1,1
2205961,3,-5,19,24,8,-1,-2,0
2221958,-18,-3,-7,-26,-7,0,-6,-44
2221958,3,-7,2,6,-3,-1,-17,34
2223958,28,6,-1,3,5,0,18,11
2223958,3,6,1,1,-2,-3,-9,18
2236972,10,3,-4,-13,-4,0,6,23
2236972,-13,-9,20,13,2,0,4,-13
2243970,-9,1,-15,-11,-1,0,-4,-17
2243970,4,4,4,7,4,1,-6,-3
2259484,-2,3,-12,-17,-2,0,4,0
2259484,-5,-9,22,58,-1,-1,-7,-10
2265484,-10,-8,-38,-60,-2,2,-1,7
2265484,-1,5,1,1,-3,-1,4,-11
2281996,-1,-3,-5,3,0,-2,3,7
2281996,-5,4,-2,5,2,-2,1,-3
2283992,-1,1,16,-49,-12,-4,-3,-7
2283992,2,-8,-5,81,7,-1,-2,2
2295992,4,9,50,-36,-5,-3,1,3
2295992,6,11,2,38,6,1,0,2
2302998,-7,-6,-23,-19,-11,-5,-8,-5
2302998,-4,-16,-19,-63,-5,0,8,4
2319033,0,0,10,72,23,3,-13,3
2319033,5,6,-2,-45,-12,-2,17,-7
2324999,-4,8,11,67,-2,-4,5,1
2324999,-2,-3,-7,-36,-9,-2,-5,-2
2342000,-1,-15,-31,-19,-8,-3,-1,-2
2342000,-11,-9,-3,-15,2,-1,-2,0
2343994,4,20,-7,22,3,1,-3,-5
2343994,3,-14,9,-4,-2,-2,-3,-2
2364509,-12,5,-8,-15,-5,-3,0,-9
2364509,11,-13,-12,-6,-3,-1,-12,-1
2370510,-10,-7,9,1,0,-2,0,-4
2370510,13,6,11,10,4,1,-2,-5
2379052,-10,-2,-8,-5,-4,0,8,3
2379052,10,10,-14,-17,-7,-3,-15,-1
2385021,2,-6,8,13,4,-2,-17,-7
2385021,4,2,-11,-5,-3,2,57,2
2402053,2,-8,-3,0,-5,-2,0,-6
2402053,-1,4,11,29,-4,-3,-5,1
2404017,-9,-13,-21,-86,-3,-1,-11,4
2404017,-10,-2,9,32,4,-2,-18,-12
2415018,2,11,-9,37,1,-1,5,4
2415018,-7,-7,-13,-21,-1,-2,5,-2
2425018,3,2,24,42,3,1,2,-1
2425018,-5,-4,-13,-37,-2,3,-4,1
2439054,8,0,-6,-23,-9,-1,3,0
2439054,0,5,4,-8,-1,-2,-13,-8
2445024,-10,-5,-14,18,-1,-2,6,1
2445024,9,1,-3,-18,-4,-2,-8,-1
2462574,8,0,15,7,2,-2,-7,-1
2462574,-8,-8,-1,3,3,1,3,-5
2464568,-8,-1,-1,0,-6,-5,-16,-7
2464568,-3,16,15,26,2,1,-6,9
2475442,3,13,-23,-22,-3,-1,-14,-9
2475442,5,-22,2,-11,-6,-3,-1,13
2490442,-14,-24,-7,6,2,0,4,1
2490442,16,25,-7,4,-1,-3,-7,-11
2499523,-7,-3,22,3,-2,-2,1,-3
2499523,-11,-4,-42,-23,-4,-2,-1,-6
2505436,7,-1,11,21,6,-1,-14,0
2505436,-13,-3,-4,-18,-7,-3,-3,-1
2522422,31,5,8,-5,-1,-1,3,1
2522422,-33,4,5,7,2,1,3,-5
2524242,-2,-6,3,3,0,0,8,0
2524242,-5,-1,18,5,-2,-1,4,2
2536518,1,-7,-27,-11,-3,1,8,1
2536518,-1,-10,13,-4,-1,-5,-8,6
2545467,3,8,-8,2,0,-1,8,-3
2545467,-4,6,5,-2,-2,1,-2,5
2559756,-13,-12,-9,-2,-3,-2,-4,3
2559756,5,6,-5,-5,-2,-2,1,-5
2565758,-2,-17,3,8,4,0,2,-1
2565758,-2,-2,-15,-3,-6,-4,-16,-5
2582602,-8,-8,0,-6,-2,-2,5,4
2582602,1,4,-4,-4,1,1,24,-4
2584266,6,11,-5,0,-3,-1,5,4
2584266,2,-10,-6,15,5,-1,-3,-2
2595269,11,5,2,0,-1,-3,-6,12
2595269,-7,4,14,8,1,-4,-18,-11
2605268,-6,-10,-20,-25,-1,0,10,1
2605268,-11,-11,-13,-3,-3,-2,-1,-15
2619269,2,2,2,-5,-1,-4,0,0
2619269,6,-4,-13,6,-2,0,1,0
2625269,6,19,3,1,-5,-2,-4,-2
2625269,-10,-16,5,-2,2,1,1,2
2649269,-8,-12,-31,2,-2,0,0,-2
2649269,23,-2,4,-12,-1,-3,3,-5
2651269,-32,-11,-2,-4,-6,-2,-13,2
2651269,0,13,6,8,4,-1,16,-3
2655270,-14,-5,0,1,-3,-1,-17,4
2655270,-5,-5,-1,-3,-2,-2,-1,2
2665280,12,9,-5,-3,0,-1,1,0
2665280,9,0,4,0,-1,-1,-8,2
2679286,-17,-14,3,3,1,-1,2,-3
2679286,3,19,-2,-13,-3,-2,-3,-11
2685287,6,-10,1,7,2,-3,-8,-2
2685287,-11,0,-8,-14,-3,-3,-3,2
2702287,19,-2,3,5,-2,-1,7,-3
2702287,-8,-7,-1,1,-2,1,-6,2
2704288,18,7,-7,2,-3,-2,6,1
2704288,0,11,21,-2,-2,-2,-6,-1
2716323,-6,-18,-16,2,1,0,25,0
2716323,2,-6,9,-9,4,2,2,0
2725289,-5,10,-1,-1,-2,1,-19,-14
2725289,11,-5,6,7,0,-1,19,9
2739535,-26,-4,0,-3,-5,-5,-35,-6
2739535,1,17,12,1,-1,-1,10,-1
2745491,0,-13,-4,-1,1,0,5,-4
2745491,3,8,-16,-3,-2,0,-7,-3
2762746,-1,-4,10,-2,-2,-2,-1,-3
2762746,-4,-10,-6,0,-3,-3,-10,2
2764747,1,10,8,6,2,-2,0,-1
2764747,-3,-11,-7,-5,-4,-2,-8,-4
2775835,0,4,-2,-11,-4,-2,1,-3
2775835,-2,2,-6,1,0,-1,-11,2
2791699,8,0,1,1,1,1,17,3
2791699,-10,-5,1,5,-1,-2,-7,-5
2799700,-2,8,2,-4,-1,2,4,-5
2799700,-4,-3,-3,-4,-5,-3,3,4
2806700,-6,-6,2,0,-3,-2,-12,-10
2806700,-1,-11,-6,1,-1,0,5,-1
2820701,-8,9,-2,-4,3,-1,18,5
2820701,-10,-16,5,4,3,1,-14,-2
2828701,-3,-1,16,5,0,0,26,3
2828701,0,7,-31,-11,-4,-6,-10,-2
2835701,10,-4,-5,-1,-3,-3,-10,-10
2835701,-6,-5,17,-1,-1,0,7,7
2844702,-1,6,-21,1,0,-1,-9,1
2844702,5,-8,5,-5,-3,1,-8,5
2859217,5,9,7,2,2,0,10,5
2859217,8,12,-9,0,-2,-2,-5,-5
2866218,-13,-18,4,5,-1,0,-6,-4
2866218,-3,-3,9,4,3,-1,0,-2
2880739,-7,-5,-9,-10,-8,-6,-23,-4
2880739,-1,-7,-2,-6,-4,1,34,5
2888866,4,5,-1,-4,0,-3,-22,-2
2888866,-16,0,6,2,2,1,19,-3
2895933,4,1,2,1,0,2,6,-4
2895933,5,-9,-23,-1,-1,-2,-1,-4
2905735,-5,5,14,-2,-5,-3,-3,-3
2905735,5,3,-5,-9,-2,-3,-10,0
2919856,-5,-3,-3,4,3,-1,-9,2
2919856,0,10,-4,-6,-1,-1,-4,-5
2926862,0,-18,-8,6,-2,-3,4,-3
2926862,2,-5,13,2,-1,0,-12,3
2941861,0,3,-14,-2,1,1,5,0
2941861,-2,-1,4,1,-2,-2,-1,4
2948862,11,0,-38,-12,-4,-3,0,2
2948862,-23,-3,10,-5,-1,0,2,-2
2955744,1,-17,-13,-8,-4,-4,-5,-5
2955744,-1,2,4,7,2,2,-3,-2
2965695,-6,3,6,-3,-2,-1,-1,0
2965695,0,-3,-1,2,-3,-3,0,-1
2979857,0,3,8,-1,1,1,-21,-3
2979857,1,1,0,5,-2,-4,16,8
2986658,18,2,4,-1,0,3,37,0
2986658,0,4,-6,-5,-1,-2,-8,-9
3001658,-3,-3,6,2,0,1,-5,-2
3001658,9,-1,-3,-2,-2,-2,-19,-1
3008658,-6,-2,3,3,4,1,-8,0
3008658,-5,-4,-9,-9,-10,-4,-3,0
3024850,10,-3,0,-4,-3,0,12,-9
3024850,-11,-2,0,0,0,0,-2,-9
3026857,-2,3,0,-1,3,0,-3,2
3026857,0,5,2,-2,-1,-1,-5,-6
3039811,-7,-20,16,-1,-3,-4,-1,2
3039811,-2,4,-7,-1,-1,-2,-7,-4
3045820,-5,-3,-16,-6,-2,-3,-10,5
3045820,7,-13,-4,7,3,3,-1,-5
3069365,-1,8,1,0,-3,-1,-7,6
3069365,4,-5,5,-2,0,0,-6,0
3071366,-8,5,2,-1,-2,-1,-9,-1
3071366,0,1,4,4,1,0,31,4
3084075,14,2,-9,-1,0,0,5,0
3084075,1,-8,-3,-4,-4,-3,-12,-8
3085871,-10,2,8,-2,-3,-2,0,-2
3085871,12,-3,-6,1,3,-2,-15,-5
3099871,0,10,3,-3,-3,-1,4,-4
3099871,-2,-10,2,1,-2,-2,3,3
3104873,-2,1,5,-3,-2,-2,-2,-10
3104873,1,-3,-2,-5,-9,-4,-3,-1
3120873,-3,2,-22,-5,1,-3,3,2
3120873,-4,-3,6,4,2,-1,-4,-1
3128873,3,7,-14,-3,-3,-2,-2,-2
3128873,-5,-1,-9,2,2,1,-5,2
3144076,-3,4,20,-1,-1,-1,5,-9
3144076,-13,-20,-21,-8,-4,-3,-4,-3
3146874,-4,2,13,5,1,-3,-5,0
3146874,-11,15,2,-4,-4,-3,-6,-1
3159663,6,-6,-15,-5,-1,0,8,7
3159663,0,-2,-3,-3,-1,-1,-1,-4
3166674,1,-10,4,-2,-1,0,-10,-5
3166674,3,4,-4,-3,-4,-4,-12,2
3181830,-15,-1,6,1,-3,0,-2,0
3181830,0,6,0,-1,-1,1,24,7
3188498,5,-6,-3,-2,-1,-2,2,-3
3188498,-6,-6,1,-1,0,-1,-6,-5
3204498,-8,-4,4,2,4,0,-4,-3
3204498,-2,9,1,-4,-8,-5,-3,-3
3206499,11,-2,-17,-5,-2,-1,-1,5
3206499,-6,-1,4,3,1,-1,6,-8
3219761,3,-4,-4,-3,-3,-1,-5,0
3219761,-2,-1,12,1,-2,0,-3,-4
3226762,-8,-6,0,-7,-4,-1,-2,-3
3226762,-4,-10,16,4,1,0,1,0
3241762,22,5,-14,-5,-1,0,-7,0
3241762,-5,-1,-6,-1,-1,-1,-9,0
3248762,-8,-8,0,-4,-4,-4,19,-4
3248762,4,0,-1,0,0,1,-4,2
3264832,-16,10,6,0,-4,-3,-11,-3
3264832,3,-7,-15,-3,1,0,-2,-3
3266866,3,10,10,8,4,1,30,4
3266866,-9,-5,-11,1,2,-1,-2,-1
3279844,1,-12,6,-6,-7,-4,-3,2
3279844,-10,4,-2,-1,-3,-5,-19,-11
3286521,6,2,-3,-1,-1,-2,-11,-6
3286521,3,4,-4,-1,-1,0,10,1
3301552,-3,1,9,3,1,-1,1,-1
3301552,5,4,-2,0,0,1,5,0
3308512,-9,-15,-3,-2,-3,-2,-9,-1
3308512,5,2,-3,0,-1,-1,-1,2
3324518,-2,-5,-14,-7,-4,-4,5,-2
3324518,-2,4,4,4,-1,-1,-1,2
3326547,-6,1,1,3,2,-1,-11,0
3326547,4,-5,7,-2,-2,0,20,-6
3339515,-4,-5,-12,-5,-1,2,-4,-1
3339515,-4,-6,10,-7,-4,-2,1,-1
3346547,-9,3,-6,0,-2,0,-11,-1
3346547,2,1,-3,-4,-3,-2,-9,2
3361577,5,-2,3,5,0,-2,1,-2
3361577,-1,-3,3,1,3,1,8,0
3368551,3,-3,-8,-3,-3,-4,-6,0
3368551,-9,-3,-14,-5,-1,-1,-3,0
3384588,-6,12,1,3,-1,-2,2,0
3384588,5,-5,-2,-1,-2,-3,-11,-3
3386547,-9,-7,-5,-6,-1,-2,1,1
3386547,10,5,-1,3,-4,-2,0,1
3398546,-7,-18,-6,-3,4,-1,-5,3
3398546,-5,5,7,4,1,2,15,0
3407546,5,-5,1,-2,-3,-3,-20,-7
3407546,12,1,-11,-2,-5,-1,27,3
3421548,-15,2,-1,-7,-1,-1,-22,-1
3421548,2,5,1,2,3,2,-1,-3
3428620,-2,0,3,-2,-7,-3,-6,0
3428620,2,-16,3,5,-3,-1,13,-2
3444549,-1,0,-12,-5,-4,0,-1,-3
3444549,-5,5,-2,-3,0,-4,-13,-5
3446584,8,4,0,-6,-5,1,12,7
3446584,-10,-3,-4,-4,2,-2,-20,-7
3459612,-4,1,27,18,-2,2,19,5
3459612,-3,4,-19,12,6,0,-13,-4
3473608,5,-1,-13,1,1,0,-14,-5
3473608,-5,-8,-13,-8,1,-1,13,6
3481595,-4,-8,-16,-8,-10,-4,-3,-5
3481595,2,-4,3,-23,-11,-1,1,5
3488593,-2,-5,-1,25,11,-3,-7,-4
3488593,-1,8,18,-12,-6,2,18,5
3504595,30,7,1,19,-2,-3,-6,-1
3504595,-8,-16,-9,-29,-4,-3,8,1
3506594,-12,6,13,14,3,-1,-14,1
3506594,2,0,-5,-8,-5,0,17,4
3518631,6,5,1,-12,0,-4,-11,-29
3518631,1,-8,-10,9,-4,-2,12,-5
3527623,-3,-1,-2,-8,0,1,-2,5
3527623,-1,11,5,4,4,-5,-26,-6
3541681,-11,-14,4,9,3,1,0,6
3541681,2,-6,-5,-1,-5,-5,-5,-1
3548811,-7,-15,-10,-9,-3,-1,-9,-6
3548811,-3,17,15,1,-1,-3,3,-2
3564856,-4,-8,17,5,2,1,8,0
3564856,-9,-2,-21,3,0,-3,-10,-2
3566807,7,7,-5,-14,-6,1,2,0
3566807,-6,-13,-3,6,-2,-2,-15,-13
3578063,-6,11,2,-5,5,1,6,5
3578063,6,4,11,5,2,0,6,1
3587063,3,2,-3,-3,-4,-2,2,1
3587063,6,-4,-35,-8,0,-1,-9,1
3601063,-22,3,6,-1,0,0,20,-12
3601063,5,-1,13,2,-1,-1,4,0
3609063,9,-5,-14,-3,1,-3,4,4
3609063,-9,-8,9,2,1,2,4,17
3625066,3,-1,-15,-10,-5,-2,-11,-9
3625066,4,0,-13,1,-3,-1,-3,7
3627102,-2,-1,29,0,-4,-2,2,3
3627102,-2,-2,-28,0,-1,-3,-17,-3
3638065,-17,-5,-38,-21,-5,-3,-13,-2
3638065,6,3,-7,-3,0,3,17,-3
3647065,-7,-5,21,1,0,-1,8,-13
3647065,0,1,-13,6,-3,-3,-10,6
3661623,-1,10,15,6,1,0,-1,0
3661623,5,-15,3,1,1,1,-9,-4
3668623,-21,7,5,-2,-2,0,10,2
3668623,2,-6,6,0,-3,-2,-3,-6
3684319,5,1,-7,4,-1,-1,-6,4
3684319,-1,-8,28,1,0,-1,-5,-1
3686575,10,11,0,-3,-5,-2,5,0
3686575,-11,-15,-8,-18,3,-3,-12,-5
3698577,1,-2,10,23,8,0,0,1
3698577,-5,-7,-11,-5,-5,-3,-8,-3
3707315,6,0,2,-5,-1,-1,-17,-6
3707315,-8,2,2,3,-8,-3,29,10
3721316,7,6,5,-19,1,-1,8,-3
3721316,-7,2,6,11,7,2,0,-1
3728579,1,8,-12,-7,-2,0,9,-2
3728579,1,-15,-2,1,0,-2,-25,-6
3751579,-18,-16,-14,-5,-4,0,12,-2
3751579,2,15,9,-5,-8,-4,-6,2
3760766,-6,-4,-1,1,0,2,-2,-3
3760766,10,4,1,-3,-2,-2,1,-11
3761799,1,0,6,0,-3,-4,-3,1
3761799,11,-3,-17,-4,1,0,-9,-6
3767796,-49,-8,4,-1,-2,-2,4,0
3767796,20,5,8,1,2,-1,-11,1
3781261,-6,-7,3,-7,-2,-1,-6,-4
3781261,8,12,3,4,0,0,10,6
3788262,12,-3,-2,-1,-4,-2,4,-1
3788262,-11,-3,-16,-3,-3,-1,-20,-9
3804263,11,5,-1,-7,3,3,-1,1
3804263,-2,-2,5,5,-3,-2,-8,0
3811563,2,1,-4,1,1,-1,13,0
3811563,1,1,8,3,-1,0,-6,-4
3818594,5,-10,-12,-2,-5,-3,3,-2
3818594,-8,-1,0,-8,3,0,10,7
3827262,12,-5,-5,3,-1,-2,-19,-12
3827262,-16,10,6,-3,-2,0,-3,-7
3841567,-2,-3,-18,2,-1,6,12,12
3841567,0,-8,-1,-7,-4,-3,0,-5
3848595,6,-10,-13,1,1,-2,4,-11
3848595,-3,6,20,2,0,-4,-6,-5
3864560,4,-7,2,1,-2,-2,-10,2
3864560,-7,10,6,3,-4,-1,-3,-2
3871563,3,-15,-14,-8,-3,0,-7,3
3871563,-1,-3,8,5,6,2,9,-3
3878690,5,1,-6,-2,-7,-4,-13,0
3878690,-3,2,1,-8,-3,-1,8,0
3887359,-7,0,-8,-6,-3,-3,-8,2
3887359,3,-5,4,0,1,-3,6,-1
3901401,-1,-5,-3,-1,-1,-3,-17,2
3901401,-1,-4,-2,3,-1,1,10,-2
3908366,-2,11,5,-5,1,0,-1,1
3908366,-1,0,-6,-2,-4,-2,-3,1
3924697,-4,1,2,-1,-1,-2,7,-2
3924697,-9,-27,-10,-1,-5,-4,-18,-8
3931696,-6,-14,-3,-1,-2,1,5,-2
3931696,0,6,-2,-3,-3,0,-5,0
3947696,-1,13,15,5,0,-1,-1,0
3947696,-6,5,-54,-13,-2,-3,-7,-7
3949385,27,-1,25,5,-4,-3,-2,6
3949385,-9,-5,4,-2,1,0,6,-5
3961876,-5,1,17,3,-2,-2,-8,-6
3961876,-12,-5,-8,-4,-3,-2,5,1
3968959,17,2,6,-2,-4,-2,-18,-5
3968959,1,-1,-12,0,2,2,15,5
3984170,19,0,-9,-5,-2,-1,7,3
3984170,0,4,17,2,0,0,-16,-2
3991171,-6,1,-4,-3,-2,-2,-4,0
3991171,-6,-2,5,5,0,-2,-7,-4
4007171,0,0,-5,-1,-1,1,-3,1
4007171,-6,5,12,1,1,1,-1,-2
4009172,4,-20,-12,-2,1,0,10,3
4009172,4,1,-10,-3,-2,-1,-1,1
4029458,1,-2,0,-3,0,-1,1,-1
4029458,-1,8,3,6,-2,0,-3,0
4031172,-10,4,5,-8,-1,-1,8,0
4031172,1,-8,2,1,-1,-2,-14,1
4044473,-4,-3,8,3,2,-1,-18,-3
4044473,-6,8,-26,-4,-7,0,38,1
4051476,-8,-11,-7,-4,-3,-3,11,-2
4051476,0,-1,-12,-9,-3,-2,-12,3
4067771,-7,6,11,0,2,-3,-1,-5
4067771,1,-13,-3,-2,3,-1,-10,-2
4069505,-5,9,7,3,0,1,1,2
4069505,-7,-2,-9,0,-2,-1,7,-6
4081070,-8,-8,0,0,-3,-1,3,0
4081070,7,4,10,0,1,-1,16,-7
4088790,-10,-5,-9,0,-1,-3,-9,0
4088790,6,9,10,1,0,1,0,2
4103984,-15,8,-13,-6,-3,1,2,-6
4103984,12,-23,11,0,-3,-4,-19,2
4110798,0,2,-17,-1,-3,-1,-11,-1
4110798,-2,3,6,-6,-1,-1,27,-7
4127910,2,-16,-5,7,3,-2,9,1
4127910,-5,0,-2,-1,0,-2,-9,0
4128792,2,7,-1,1,-3,-2,1,-2
4128792,2,1,-7,-6,-8,-2,-19,2
4141912,8,-1,2,-1,-1,-1,10,7
4141912,-5,1,-4,1,1,0,-6,-1
4147801,10,2,19,2,2,-1,-8,-4
4147801,-2,-2,5,3,-1,-1,-3,-6
4165082,1,4,-42,-10,-4,-2,-1,0
4165082,-1,-4,6,4,-1,0,-8,1
4178907,-10,-1,25,3,0,1,2,4
4178907,-1,-2,-20,-6,-4,0,9,-4
4187174,-2,1,24,0,-2,-1,-2,-1
4187174,-4,7,-6,-2,0,0,10,-1
4188887,-8,5,-2,-2,-4,-2,-7,-6
4188887,3,-19,8,5,3,1,2,4
4201910,-2,-3,-6,-2,-1,-3,-18,8
4201910,10,13,13,-3,-4,-1,29,-8
4207891,0,4,-7,2,1,2,1,3
4207891,-5,-18,-5,-3,-1,-4,-8,-3
4223887,-3,13,-4,-3,-2,-3,-5,-6
4223887,-5,-17,0,0,3,0,-12,3
4230894,-5,0,-5,-5,-5,-5,-4,-5
4230894,-3,15,-6,0,-2,-2,5,-4
4247905,-2,-7,4,-1,-1,0,3,-3
4247905,-8,5,-3,-5,-2,-2,-9,-2
4248889,-2,-4,-8,-2,1,1,-1,-1
4248889,-3,2,-5,1,-1,-1,-11,-2
4261904,5,-3,9,-1,0,0,6,-3
4261904,-6,0,-4,1,-3,0,-1,-1
4268940,16,8,7,-4,0,0,-17,5
4268940,-27,-15,-22,-3,-3,0,36,-1
4283999,5,4,10,1,-1,0,3,-1
4283999,1,4,-1,-2,-5,-5,-21,-3
4291992,-6,-8,-2,2,0,-3,17,-10
4291992,19,7,10,1,1,1,3,1
4307280,-10,-2,-6,-3,-2,-2,-5,-5
4307280,-9,-4,-3,-4,-1,-2,-5,-1
4308995,8,6,3,-1,-2,-1,1,-3
4308995,4,10,9,2,-1,-2,-24,3
4320996,-7,-23,-15,-5,-4,2,13,-1
4320996,3,4,5,-1,-1,-2,-15,-4
4328995,-6,-6,-14,0,-2,-2,9,1
4328995,-10,-4,-3,-4,-2,0,-5,-1
4344995,6,7,5,1,0,-2,-5,1
4344995,-4,-8,0,3,2,1,-1,2
4351996,-8,1,-11,-10,-7,-3,-5,-4
4351996,0,-5,-2,-2,0,-2,2,2
4367590,-6,-4,11,1,-3,-2,-10,-6
4367590,12,0,6,-1,0,1,14,15
4369325,-2,-8,-23,-1,3,1,22,1
4369325,8,12,16,-3,-3,-2,-9,-2
4381374,-15,-4,-13,-3,-1,-1,-2,-3
4381374,-4,-3,0,4,1,-1,-7,-6
4388086,0,6,5,2,2,1,-9,1
4388086,2,-7,-4,-2,-3,-4,-8,-4
4405086,1,-2,3,0,1,-1,-7,2
4405086,-3,-3,-3,-6,-4,-2,9,0
4411093,0,2,-5,-2,-2,-2,2,-5
4411093,-2,-10,15,2,-1,-3,-6,-4
4427094,9,3,-23,0,0,-2,-11,-6
4427094,-11,-10,-4,-3,-4,0,15,-5
4429087,0,13,-3,-1,0,0,-5,4
4429087,1,-23,12,4,-2,-2,-2,-2
4441092,25,12,-20,-8,-3,-1,0,3
4441092,3,-3,-9,-7,-3,-3,-7,-5
4450087,-4,-2,12,3,1,-1,-1,-1
4450087,-8,3,-10,-1,1,1,1,-3
4464626,-8,2,-7,-3,-2,-2,0,-2
4464626,3,-10,11,-2,-1,-2,7,4
4471610,2,4,-13,-3,-3,-1,-8,-1
4471610,5,-1,-4,1,-2,-2,-6,-1
4487120,-6,-2,7,-1,0,-2,-4,-1
4487120,-4,11,4,2,-1,-1,1,0
4489121,-1,-17,5,1,-2,0,19,3
4489121,-12,4,-4,-2,-1,1,1,0
4501121,-21,-1,4,-1,-2,-2,-6,-7
4501121,1,6,-6,-1,-2,-2,-10,-6
4510157,-3,-14,-5,0,0,1,7,6
4510157,1,2,-2,-4,0,-1,2,-4
4524128,-1,1,-7,2,-1,0,2,-1
4524128,-4,-10,-8,-6,-5,-2,-6,3
4531128,2,7,1,-1,0,1,-9,-4
4531128,1,-1,-6,-3,-2,-1,-2,0
4547164,-5,-10,20,2,1,-2,6,1
4547164,-4,-8,-2,4,1,0,-7,-8
4549159,1,-8,6,-6,-3,-3,-7,-2
4549159,-21,-10,-13,-6,-1,-1,-2,-1
4561629,3,-2,-4,0,-1,0,-4,-1
4561629,-4,3,0,4,-1,-2,16,-3
4570165,4,4,-9,0,-2,-3,-12,7
4570165,22,7,-1,-1,-1,2,-12,-4
4584185,-23,-8,0,-2,-2,-1,6,-5
4584185,-10,2,8,-1,-1,-3,-8,-3
4591185,-1,0,-12,-2,1,-2,-1,4
4591185,3,4,-1,1,-1,-4,-12,-1
4607186,1,-4,-2,1,-1,0,7,-1
4607186,9,0,-3,-1,-4,-2,-12,-2
4609151,-5,-1,6,1,-2,1,-9,-9
4609151,3,1,-2,-3,0,0,9,5
4621153,-14,-10,-2,-2,-3,-2,4,-4
4621153,-1,-2,-5,-1,-1,-2,-9,-2
4630165,-4,-3,-2,-2,-2,-2,9,-7
4630165,2,2,27,3,0,-1,4,0
4644396,10,17,-6,0,-1,-2,-3,10
4644396,-10,-23,-34,-5,-2,-2,-6,1
4651483,-5,-12,17,5,0,1,-1,-4
4651483,-2,20,8,0,-1,1,-5,-3
4667661,0,-4,11,-1,-2,-3,2,1
4667661,-1,5,-15,-9,-2,-1,-9,-2
4669662,-6,-8,-6,-1,0,-2,-2,3
4669662,0,1,-14,0,-3,-3,-15,-2
4681860,3,-2,10,0,0,2,9,-1
4681860,0,11,-1,1,-3,-3,2,0
4690489,1,-14,8,-3,-4,-1,-3,-1
4690489,10,2,4,-2,-1,-1,-9,-1
4704492,-2,-1,-12,-8,0,-1,-4,0
4704492,5,0,3,10,6,3,2,-3
4711490,-7,4,-4,-1,-6,-5,-11,-4
4711490,-4,-7,-3,-2,-5,-1,16,5
4734720,1,-3,-5,-17,-4,-2,0,-8
4734720,0,-1,13,20,2,1,2,2
4736719,-2,10,-6,-5,2,-1,-5,-3
4736719,-5,-4,-4,6,-3,-1,5,-4
4741792,4,-9,-11,-8,-3,-3,-8,-3
4741792,-7,0,16,-10,2,-3,-16,-2
4750497,16,1,-1,43,17,0,-1,-4
4750497,-12,7,-2,-25,-10,-2,17,3
4764841,-5,-20,-16,-13,-17,-1,6,-6
4764841,8,17,31,-18,9,-2,-12,-1
4771712,2,11,-12,5,-5,-3,-2,-4
4771712,-41,-27,5,-3,6,0,2,-6
4786668,4,-5,3,16,4,-1,-5,0
4786668,1,-3,-15,-2,-10,-2,3,-3
4793473,-5,14,17,-15,-3,-3,-5,7
4793473,8,7,-24,38,13,1,-6,-1
4801695,2,7,4,-55,-12,0,2,0
4801695,-7,-19,-1,6,-11,-4,-1,1
4810667,7,-1,-6,-13,-2,-1,1,-3
4810667,6,-10,-4,9,-1,-2,17,-1
4824730,-2,5,4,4,0,-2,-9,0
4824730,4,8,-9,-10,6,1,-4,-4
4831730,-10,-3,-3,-13,-11,-5,-18,-7
4831730,7,-3,-5,-14,-7,-1,18,0
4846670,-6,-3,9,35,10,-4,-5,2
4846670,5,5,2,-6,-5,-1,9,-2
4853701,-14,-22,-25,-8,-5,-1,2,3
4853701,-10,4,4,-13,-1,-3,-16,-5
4861921,13,10,-3,2,-1,-2,3,3
4861921,2,3,8,0,-3,0,2,1
4870659,-1,-14,3,16,4,2,4,-5
4870659,7,-10,5,-4,-5,-4,-2,9
4884914,-3,3,-18,-2,0,1,-1,-2
4884914,-6,8,-8,0,0,-1,-18,-5
4891856,-6,-19,-14,-15,-3,0,21,5
4891856,11,5,-10,-11,-6,-4,-6,-3
4906545,-14,-4,3,15,1,1,-9,7
4906545,16,-2,12,0,3,1,4,2
4913914,7,23,15,-5,-1,-4,-8,2
4913914,-16,-16,7,4,2,1,-3,-9
4929781,5,3,-11,5,7,3,-8,2
4929781,4,-8,-6,-1,-5,-1,0,6
4931805,-21,-9,-2,-4,-4,1,24,-5
4931805,4,8,9,4,0,-3,-9,0
4944545,4,6,1,0,-1,-3,-13,-5
4944545,-12,-3,-5,1,0,-3,4,-7
4951834,20,11,4,2,-3,0,1,0
4951834,1,-11,-11,-3,0,-1,-10,-4
4967067,10,-7,6,-2,-2,0,4,-4
4967067,20,-10,-11,-2,-1,1,11,-4
4973569,-12,8,7,1,1,-1,-4,0
4973569,0,2,21,6,1,0,-7,-1
4988877,2,-15,-45,-13,-5,-5,-1,-3
4988877,2,7,25,3,-2,-2,1,2
4990877,2,-2,-53,-11,-3,0,-10,-7
4990877,4,6,27,6,-1,0,-1,-4
5003986,-3,2,17,3,-3,-3,3,0
5003986,-19,-7,-25,-5,-1,-3,-1,-8
5010878,-12,-3,16,1,-2,-1,0,-1
5010878,0,0,-18,-3,1,0,-1,-1
5026275,-4,0,4,4,0,-1,-3,-2
5026275,-14,-3,-6,-4,-3,-3,29,-1
5033881,0,-2,12,-1,-3,-3,-15,-5
5033881,17,-1,-22,-3,0,1,16,-2
5049878,-1,6,7,4,1,-2,-4,-1
5049878,-1,-3,0,-5,-4,-1,-17,3
5050878,1,-13,0,2,0,0,-10,-4
5050878,-11,0,-10,-7,-4,-3,21,2
5064779,4,11,8,1,-2,-2,-3,3
5064779,-5,-7,-10,2,-1,-1,-12,-6
5071598,2,-2,23,-7,6,1,3,3
5071598,-7,17,-7,-1,-3,-2,-20,-9
5085865,13,-23,-6,-6,-3,0,28,8
5085865,-20,0,-5,6,0,-2,-7,-11
5092870,3,7,-4,0,-5,-1,2,-1
5092870,1,-8,18,-2,-8,-5,-16,2
5108871,-10,13,-8,-13,10,1,0,-11
5108871,16,-3,0,-2,-2,0,-10,0
5110865,-5,-12,-4,1,1,1,13,3
5110865,-5,-2,-12,-5,-4,-4,-8,-4
5124866,-1,11,7,2,-6,-1,-15,-1
5124866,0,-15,6,-3,1,-2,2,1
5131866,1,16,-4,-2,-1,-1,6,-3
5131866,-5,-5,2,1,1,0,6,7
5146065,-5,-11,5,3,0,-1,-2,-3
5146065,-4,3,-14,-4,0,0,0,2
5153868,2,-2,4,-1,-2,0,-5,-1
5153868,2,-3,-10,-1,-1,-2,-4,-1
5170663,-8,-1,2,3,1,1,3,0
5170663,-1,7,4,-2,1,3,0,1
5172664,4,-6,-9,-3,-5,-5,-12,-9
5172664,6,4,-1,3,1,1,3,6
5184671,-13,-4,-1,0,4,0,2,-7
5184671,26,16,7,3,-5,-2,6,-1
5191672,14,-9,-3,-3,-1,0,2,4
5191672,-17,-10,8,2,-4,-2,-6,-4
5206673,0,1,-51,-18,-5,-1,-6,3
5206673,-9,-14,24,21,8,-2,0,-4
5213673,-5,15,-7,-5,0,-1,-19,-2
5213673,12,-12,-1,-1,-2,1,15,0
5229843,-6,1,1,-3,-2,-2,-8,2
5229843,-8,2,-8,-6,-3,0,8,1
5231674,-2,0,-5,1,-1,-2,-5,-1
5231674,-5,-2,-5,-5,2,0,-3,0
5244873,5,5,9,3,-1,-2,-6,-2
5244873,-2,-5,-12,-8,-5,-3,-3,1
5251675,6,-1,4,5,0,-2,-4,-3
5251675,-16,4,0,-4,0,-2,-3,-5
5266701,7,-7,6,6,-1,-1,-21,2
5266701,0,2,11,0,1,5,41,1
5273701,-2,-3,-5,-5,-6,-1,2,0
5273701,-3,8,6,0,0,-1,-4,-4
5290209,1,8,-1,-1,-3,-4,-14,-5
5290209,-19,-24,-7,-4,-2,-3,-19,0
5292209,0,-1,-1,-1,-2,-2,7,1
5292209,-10,-6,-5,-2,0,3,-6,0
5304209,0,7,22,2,-4,-3,8,-6
5304209,4,8,-7,-6,-1,-4,-8,1
5311246,-3,2,2,2,0,-2,-7,-1
5311246,-8,1,-1,-2,-1,-1,-1,-1
5326428,7,-16,-11,2,0,1,18,4
5326428,-17,4,-6,-4,-3,-2,-15,-7
5333449,-2,-16,0,-3,-2,-2,-4,-4
5333449,35,5,-2,1,0,-3,-9,4
5350255,-44,-9,12,-1,-4,1,8,-1
5350255,5,1,-9,-4,-1,-2,0,-4
5352248,-9,9,5,2,0,-5,-5,-2
5352248,0,-10,-5,-2,-2,-1,-9,-1
5364806,15,-1,9,2,1,2,31,8
5364806,13,3,-10,-3,-2,1,-10,0
5371505,-5,0,5,0,0,2,-9,-4
5371505,-2,1,-3,-1,-2,-3,8,-1
5386018,-2,-3,-8,-3,-4,-5,-14,-2
5386018,-6,14,10,4,-3,-2,1,3
5393013,-7,-18,13,-5,9,-2,-11,-4
5393013,-2,1,-21,-7,-4,0,26,-2
5409020,9,-2,-2,1,-2,-2,-17,-10
5409020,1,-10,12,1,-1,0,1,0
5417013,-1,2,-30,-9,-6,-2,4,-7
5417013,-1,5,20,4,0,-1,-10,1
5423014,-6,-5,-14,0,-1,-1,-3,-8
5423014,5,3,-3,-6,-3,-1,-17,-3
5432014,1,-1,-1,1,1,3,49,10
5432014,-6,-5,3,-2,-2,-1,-4,-3
5447015,7,6,3,0,-2,0,4,-10
5447015,1,-11,-3,0,2,-1,-9,0
5454015,2,4,-1,-1,-2,-3,-7,2
5454015,-5,-1,-9,1,-1,-1,-5,-5
5469593,-1,-10,11,-7,-2,-3,3,0
5469593,-8,6,-5,-1,0,-2,1,-1
5471309,-6,6,-1,-3,-7,-3,-8,-2
5471309,5,8,2,-3,-1,-1,7,1
5483607,-17,-8,0,1,0,-5,-19,-5
5483607,4,-2,-27,0,2,4,17,7
5492607,-3,-3,20,0,-3,-1,-11,-6
5492607,-4,-2,-10,0,-3,-2,-5,0
5506607,-7,2,-5,-10,1,-2,4,-4
5506607,2,1,1,8,-1,-1,-11,-6
5513608,3,8,6,2,-2,4,12,3
5513608,-5,-13,3,-1,-2,-4,-23,-8
5530609,16,11,-27,-4,-2,2,10,9
5530609,-1,3,3,-4,-3,-3,-3,-2
5532608,14,-7,-9,0,-1,-4,-5,-1
5532608,-46,0,1,-9,2,0,-11,-4
5552615,-5,-5,9,11,1,1,-1,-1
5552615,-5,-12,4,-5,-2,-4,-3,-5
5554609,0,-1,-5,1,0,-2,-4,0
5554609,6,-6,-20,-4,-2,0,6,-4
5566621,0,14,8,0,1,1,3,0
5566621,-4,-11,-2,-2,0,-3,3,3
5573623,9,1,3,1,-1,-2,-12,-6
5573623,-2,-1,0,1,-1,1,10,6
5589637,-5,-4,4,1,-2,-2,4,-3
5589637,12,0,-1,1,-1,0,-18,-2
5591632,-11,-2,-2,-6,-5,-2,-7,-4
5591632,9,0,-12,-1,-1,-1,0,4
5602632,4,-8,-1,-3,-1,-3,-17,3
5602632,-22,-5,1,-2,1,1,25,-6
5611633,10,0,-8,-2,-1,-4,-3,5
5611633,0,-4,2,0,-2,-1,-4,0
5625639,-2,1,13,2,-2,-3,2,-4
5625639,5,-3,-17,-5,-3,-1,-8,8
5632635,-15,5,-1,-4,-1,-1,5,3
5632635,16,7,3,0,-2,0,5,1
5649635,9,4,-17,-6,-2,0,-4,0
5649635,-9,-17,13,0,-2,-2,0,-2
5656636,-8,-12,-12,1,-1,-2,-2,-6
5656636,3,-2,8,1,-1,-2,-2,2
5663656,-3,1,5,1,-3,-4,-3,-4
5663656,2,7,-7,-11,-3,-1,-5,-5
5672156,0,2,5,8,2,2,3,0
5672156,8,-4,2,-1,1,0,3,-4
5685666,0,-6,2,-3,0,0,0,-1
5685666,-4,7,3,-1,-1,-3,-5,-5
5693800,3,-2,-15,-3,-2,-2,-5,-2
5693800,-11,-2,-17,-2,0,-2,-4,-6
5709797,1,-4,-10,-3,-3,-1,-11,3
5709797,7,7,10,2,0,-1,24,14
5716805,2,-11,-12,-8,-6,-2,2,-3
5716805,-20,12,9,0,-3,-4,-5,-6
5723672,14,-12,5,-3,-1,-3,-12,-4
5723672,7,6,-6,2,1,-2,2,-1
5732799,-22,5,-4,1,2,0,1,-4
5732799,11,2,-8,-7,-5,-1,5,4
5746766,-10,-5,-2,-4,-1,-2,-3,-3
5746766,-5,-2,9,1,-2,-1,2,-4
5753804,5,-5,2,1,-1,0,1,3
5753804,1,3,6,2,1,-1,-9,-5
5769631,-1,5,5,1,0,0,8,-1
5769631,-1,-5,-10,-2,-2,-1,-18,-3
5776632,-3,0,4,-1,2,1,6,4
5776632,-10,-10,7,0,-1,-1,-1,-4
5783084,13,1,2,-1,-1,-1,7,3
5783084,-27,2,-8,-5,-3,-3,-15,1
5792081,-1,-1,1,1,0,-2,-7,3
5792081,9,-9,2,-6,0,2,24,0
5806083,-2,-5,-3,12,5,-1,-2,0
5806083,2,6,-2,-3,-2,-2,0,-6
5813414,2,4,15,-1,0,-2,-3,-2
5813414,-3,6,3,2,-2,-2,-6,1
5829417,-4,-4,-9,-6,-2,-2,-4,-1
5829417,-2,-8,3,-1,2,-1,7,0
5836418,1,-15,-3,0,0,1,4,-6
5836418,10,7,-3,-2,-2,-1,-1,0
5852384,-13,-2,-3,-3,-3,-1,2,-4
5852384,-6,5,4,3,0,-2,-17,-5
5854084,12,-4,-7,-3,-3,0,19,4
5854084,8,4,6,0,-1,-3,-9,-3
5866673,-4,5,-1,-1,-3,-1,0,2
5866673,2,-9,-3,0,2,-1,-3,6
5873879,-7,1,-8,1,0,-1,-9,-7
5873879,-4,-11,-7,-12,-6,-1,6,0
5888887,-1,9,5,7,-1,0,0,-1
5888887,2,-1,4,0,-1,-1,1,-9
5896886,-16,-1,14,3,3,-1,-12,-3
5896886,-7,1,0,-1,-1,-2,-9,-2
5912170,1,-1,-8,-5,-3,0,12,3
5912170,5,-3,-5,-3,-2,0,3,-2
5913890,-8,-9,-2,-2,-1,-3,-1,-2
5913890,7,-4,-6,5,2,0,-12,-2
5926888,-7,-11,-4,-7,0,-1,0,-3
5926888,-21,7,1,-2,-3,-1,5,-1
5933888,34,16,-2,-6,-3,-2,-4,-6
5933888,-10,-10,-5,1,-1,-4,-5,-2
5949889,2,-28,-1,-1,-6,-3,-6,6
5949889,-1,7,15,0,5,-3,-10,-4
5955891,-10,-5,7,-1,-1,-1,-2,0
5955891,3,6,-5,3,-2,-1,4,9
5972695,6,-5,-2,-1,-2,-1,5,-11
5972695,3,5,7,-5,-4,-3,-14,-1
5974694,-9,0,-10,-3,-3,-3,-10,-2
5974694,9,-4,-5,4,0,-2,-5,-3
5986525,-12,9,-1,-3,-6,-1,4,-1
5986525,4,-9,-4,5,2,0,2,1
5993525,-6,-8,11,-15,0,-4,-8,-6
5993525,-15,-2,-19,-5,0,-1,4,-6
6009786,0,3,-4,2,0,-1,-14,-2
6009786,3,-13,-14,-2,-7,0,7,-5
6016791,17,8,-1,-5,-2,1,5,17
6016791,9,-1,3,-7,-2,-3,-25,-16
6032790,8,-7,-2,3,3,2,26,-2
6032790,-35,4,-6,-1,-1,1,7,3
6034764,-2,-3,-2,7,-1,-4,-4,-5
6034764,-2,-13,-3,-2,-3,-1,-5,4
6046762,-9,6,8,-1,3,-3,-16,-1
6046762,15,-3,-2,-6,-7,-1,32,0
6053763,-9,3,-23,4,-4,-2,-10,0
6053763,-11,0,1,-6,-2,-2,10,-3
6069228,5,7,7,4,0,0,-16,-2
6069228,4,-14,4,1,1,1,12,-1
6076491,-3,3,-10,-18,-3,-1,3,3
6076491,-4,-3,9,29,9,2,4,-10
6092520,-3,-8,-2,-13,0,-3,-12,-1
6092520,16,8,3,13,1,-2,-22,0
6094448,-8,-1,6,4,-3,2,23,-2
6094448,1,-3,-2,-12,-5,-2,-8,1
6106677,-12,-4,-3,4,-2,1,11,-3
6106677,-5,-9,-5,-15,2,-1,-23,0
6113714,12,-1,-5,5,-2,-3,-4,-1
6113714,-3,9,2,-11,-6,0,21,0
6129754,-8,7,4,8,2,-3,1,7
6129754,7,1,6,-6,-1,-3,-2,-7
6136751,-3,-14,9,2,1,1,-8,-10
6136751,-3,-6,-5,-2,-2,0,5,-6
6152755,4,16,0,-3,-2,0,-5,-1
6152755,-2,-5,-14,-1,-1,1,5,2
6154452,-12,-5,-9,0,0,-3,10,6
6154452,0,11,7,3,3,1,-15,-7
6166759,-1,-7,-12,-5,-2,-1,36,-5
6166759,2,-3,-6,3,-2,-2,-6,-1
6173465,-16,-12,4,7,-4,-2,-8,-4
6173465,10,6,0,-10,3,-3,2,-2
6189489,5,-2,10,0,-1,0,-11,1
6189489,4,2,-3,-5,-6,-4,-10,-3
6196647,6,4,-6,1,0,0,23,5
6196647,-7,-17,2,3,-2,-1,-15,2
6212403,-1,5,-4,-10,-1,-1,-6,-3
6212403,1,-7,4,4,-1,1,-1,3
6214403,9,-4,0,-6,0,-3,-13,-4
6214403,-3,13,-38,-5,-6,-4,2,8
6226637,-11,-10,-4,-4,1,-1,-7,-1
6226637,10,-4,-1,5,0,-1,9,2
6233665,-6,-3,-9,-7,0,0,-3,-1
6233665,11,3,20,1,1,0,3,3
6249699,-9,-16,-14,-1,-3,-1,-11,-3
6249699,-20,10,14,-1,-4,-5,-7,-7
6256638,-5,1,-7,-1,1,0,-1,-8
6256638,1,-8,-3,-3,-3,-3,-4,-5
6272706,20,9,22,7,-1,-1,-2,23
6272706,0,-6,-16,-11,-2,-1,3,2
6274131,-3,6,-1,0,0,0,-10,-6
6274131,-9,-11,-19,-7,-5,-2,3,-1
6286359,-6,2,13,0,-2,-4,-13,-11
6286359,1,2,1,6,2,0,10,1
6293360,0,-2,5,-3,-3,0,4,8
6293360,8,0,2,-3,-3,-1,-1,-5
6309396,10,-1,-10,-2,2,1,-2,-4
6309396,-2,0,-4,0,-1,-2,-14,-7
6316356,15,6,21,2,1,1,16,0
6316356,-24,-11,-48,1,1,-1,-1,-2
6332537,-6,2,-4,-6,-2,-3,1,-3
6332537,3,-5,6,2,2,1,1,-2
6334356,-8,-2,7,0,-3,-2,-9,-7
6334356,14,2,22,-2,-1,-1,0,7
6346429,-11,5,14,7,1,0,4,-3
6346429,-6,-6,-27,-4,-1,-1,-2,-4
6355424,-9,4,2,-12,-1,-5,-16,-7
6355424,2,0,13,12,6,2,24,6
6369878,-6,-11,-7,-1,-7,-3,-8,-6
6369878,16,22,11,-9,-2,-3,-2,-11
6376655,-4,-9,-12,2,-6,-1,-7,-2
6376655,-3,-17,6,-13,1,0,-12,-5
6400538,-4,3,4,0,-3,-2,-22,-2
6400538,-3,-11,-5,5,3,4,51,6
6402538,-4,14,-10,2,1,-1,-7,9
6402538,17,4,8,1,-4,-1,-10,-8
6406538,1,-4,1,-5,-4,-2,-2,2
6406538,0,-2,-1,-5,-3,-2,-5,0
6415538,-6,1,0,4,-3,-3,-2,2
6415538,5,-2,15,6,1,3,0,-3
6429793,3,7,-3,-5,0,0,8,3
6429793,-3,2,-3,4,-3,-3,-21,-1
6436793,11,-2,0,-3,-1,-2,10,-2
6436793,-15,-4,14,-8,-2,-2,7,2
6452792,15,-7,-39,-15,-4,-4,-16,-3
6452792,-11,0,11,11,1,-2,22,0
6454540,2,9,-2,-3,-3,-3,-13,5
6454540,-10,4,1,0,0,-3,-6,-7
6466519,-10,-21,-11,-8,-5,-5,4,-5
6466519,-5,3,-6,-7,-2,0,4,2
6475259,2,-21,-7,0,-4,-3,2,-5
6475259,-5,12,7,-8,-3,-5,1,3
6489476,1,14,11,6,3,-1,-11,-3
6489476,-1,-10,-4,-1,-2,0,-15,-3
6496847,2,-4,3,1,3,4,15,-1
6496847,-10,12,-24,-4,-3,-2,-9,2
6512851,17,-7,8,0,0,-3,-3,-12
6512851,-8,0,-6,-10,-8,-2,2,4
6514513,-16,-2,-7,-1,2,-1,-10,0
6514513,7,-5,-11,7,-2,0,11,5
6526850,-1,-2,-3,-6,-3,-3,8,-7
6526850,-3,4,9,1,-4,-4,-14,-3
6535483,6,-2,-8,-1,3,1,-3,-7
6535483,-9,-5,16,3,-3,-1,-8,-1
6549853,-5,13,-18,0,-1,1,5,-1
6549853,7,5,1,-3,0,-2,-2,2
6556481,-18,-6,11,1,-1,-2,-8,-4
6556481,-4,-27,-7,0,-3,0,-6,-2
6572506,2,-3,0,2,1,1,2,-1
6572506,3,-8,-4,-6,-1,-2,-9,6
6574521,10,15,-3,-1,0,0,0,-6
6574521,-5,5,4,0,-2,-1,0,4
6586514,-8,-5,4,0,1,2,-18,4
6586514,0,0,-8,-1,-1,-1,0,-7
6595513,-11,-5,2,-2,-2,-2,-4,-5
6595513,18,0,-1,-1,-2,-1,-7,2
6609556,-16,-4,15,-3,-5,-4,-13,-3
6609556,-2,2,-17,2,1,-1,5,-2
6616525,-6,-6,4,-3,0,-2,-2,7
6616525,14,-3,-2,4,-1,-1,-9,-5
6631530,-4,13,9,2,0,-3,5,-1
6631530,-2,-22,-21,-5,-3,-3,-7,-3
6638515,3,-5,-6,-3,-3,0,5,1
6638515,-6,23,19,3,1,0,-2,-5
6646560,-7,3,1,-1,-1,-2,14,0
6646560,-5,-29,-1,-2,-3,-1,-6,-6
6655516,-1,0,-10,2,3,1,-3,-1
6655516,-3,1,6,-3,-1,-1,-2,0
6669543,10,0,-8,5,-2,1,23,0
6669543,-4,7,11,-7,1,-3,-4,3
6677529,20,4,14,1,2,0,6,0
6677529,-1,-5,-5,-2,1,3,8,2
6691552,-7,-4,-10,-4,-5,-2,-5,0
6691552,-3,9,2,-1,-2,0,4,-4
6698549,11,-18,-2,-1,-3,-3,-10,-5
6698549,-10,4,-3,-1,0,-4,-13,0
6706550,10,-10,-13,-3,1,3,9,-2
6706550,-15,4,0,1,1,-3,-9,-3
6715550,-1,7,8,-2,-3,-1,0,-3
6715550,-4,-11,-4,0,0,-2,-2,-4
6729557,-1,1,-12,-2,-2,-2,-5,7
6729557,7,6,3,2,-1,1,-3,0
6736551,4,3,-16,-5,-5,-2,-3,-6
6736551,0,-5,2,-1,-4,-4,-8,2
6751552,-11,-4,-2,-8,1,0,18,-1
6751552,-2,-8,5,2,1,0,-1,-3
6758553,-3,2,3,-4,-3,-1,-5,-4
6758553,-9,-9,-2,2,0,2,3,-3
6766572,5,14,-3,-2,-1,-2,-4,-6
6766572,-9,3,4,-2,-3,-2,-6,-2
6775734,-3,-21,-6,-3,-2,-3,-5,-2
6775734,3,5,-2,-2,-2,-2,3,0
6788773,-9,-7,9,0,1,-1,-2,-1
6788773,10,7,-8,1,1,-2,-4,3
6796773,0,11,6,-3,-2,2,-4,1
6796773,-4,-10,-20,-5,-4,-6,-4,-2
6810780,3,-3,-2,2,-1,0,-5,1
6810780,13,-1,-3,1,-1,1,9,3
6818774,-33,-2,-3,1,-2,-4,-2,-5
6818774,16,5,3,0,-1,1,18,2
6835777,-4,-2,10,0,-1,-3,-13,-3
6835777,-2,-17,-21,-4,0,-1,4,-4
6836776,2,4,0,-2,-1,-1,-1,2
6836776,0,1,-11,-3,-1,-1,1,-3
6848780,-19,-3,2,1,0,-3,-3,5
6848780,-5,-5,8,4,2,-1,-7,-2
6856849,0,3,16,0,0,-1,6,5
6856849,-4,-4,-9,-5,-2,0,-4,-7
6871671,9,-4,-5,-6,-1,0,11,3
6871671,-11,18,13,6,-2,-3,-9,-6
6878444,2,7,-9,-2,1,0,-1,-2
6878444,2,-10,7,-1,0,0,-1,3
6895668,-4,-12,-8,1,-2,-3,0,-3
6895668,3,-5,8,-3,-3,-1,2,3
6896669,-9,2,6,-2,-2,-3,-7,-6
6896669,1,4,-9,1,-1,1,5,0
6909669,6,-4,-3,3,1,0,-3,-4
6909669,-35,-3,-7,-6,-5,-3,15,2
6916819,19,1,-5,1,0,-2,9,-1
6916819,-4,-1,5,-5,-3,-3,-6,-4
6932821,-2,-4,-1,-1,-2,-2,-8,-4
6932821,2,-2,4,0,1,1,-2,-3
6937671,2,-4,-11,-3,-2,0,-4,1
6937671,-3,-4,7,1,-4,-2,-3,10
6954672,11,6,-6,-10,-3,-2,-11,-1
6954672,5,10,4,5,0,-1,-4,-3
6956671,-5,-5,-2,1,-1,-1,1,0
6956671,-2,-3,-2,-1,1,-1,-1,0
6969767,-1,6,-4,0,-4,-2,0,0
6969767,9,-12,-3,-5,-1,-3,-7,2
6976762,-6,-10,-7,-4,0,0,1,0
6976762,-6,12,13,4,-2,0,3,-4
6991205,-6,1,-9,-1,0,2,0,-2
6991205,16,2,0,0,1,1,-3,0
6998206,-9,1,2,-1,-3,-1,13,0
6998206,-10,-9,-17,-1,-1,-2,-10,1
7015541,1,-3,7,3,2,1,-1,-3
7015541,1,-10,-5,-1,0,-1,0,0
7017206,5,0,2,-4,-2,-4,-14,-8
7017206,-12,3,-19,-4,0,-1,8,-5
7029572,17,-9,-13,-1,-3,0,-1,-6
7029572,-13,1,1,-2,-2,-1,-18,0
7036573,-5,1,4,1,-2,-4,4,-2
7036573,-1,4,5,-4,-1,0,-2,0
7051489,0,4,6,2,-3,-3,0,-3
7051489,-2,-1,-14,-3,-2,2,1,-3
7058498,2,-3,5,-2,0,0,1,2
7058498,-1,-2,0,-2,-2,-2,0,-5
7082654,-2,-1,-1,2,3,2,-4,-2
7082654,8,-2,-4,-7,-4,-2,4,-2
7090621,-2,6,-5,3,2,2,-1,-2
7090621,-1,-9,-7,-3,0,-4,-9,-3
7091288,-8,-12,-1,0,-1,-4,-18,7
7091288,0,5,11,-7,-1,-1,12,-3
7096295,4,1,-9,0,-2,0,-1,-4
7096295,6,4,9,2,-1,-2,1,0
7111296,-21,-2,-2,-4,-4,-3,-12,-6
7111296,3,-5,-2,-2,-5,-4,-15,-2
7118625,8,-6,2,0,0,-2,5,2
7118625,-10,9,-10,-2,-1,0,1,-3
7135658,-4,-1,-3,1,0,-2,5,-4
7135658,-3,3,1,0,-1,1,-1,-3
7137291,1,-12,-2,0,1,-1,-2,2
7137291,-3,10,5,-1,-1,0,-6,2
7149631,7,-12,8,-1,-6,-1,12,-1
7149631,-4,11,-3,-6,0,-1,1,-1
7156292,-13,-3,-12,1,-1,-3,-8,5
7156292,4,-23,-5,-5,2,-1,-2,-7
7171585,-9,8,-10,0,-1,-3,3,1
7171585,5,0,3,-5,-3,-2,-4,-2
7178585,-11,1,1,-1,-3,-2,-3,-1
7178585,0,-1,2,6,0,-1,0,3
7195183,1,1,-5,-11,-1,-2,-4,-2
7195183,-6,-6,-5,10,1,-1,11,-1
7196880,3,11,3,-17,-4,3,25,0
7196880,2,-3,1,18,0,-2,-1,1
7208884,-2,-8,-3,-7,-1,1,8,-5
7208884,-20,-12,-5,15,-1,-4,-23,4
7216881,5,10,6,2,-5,-2,-12,-5
7216881,4,-16,-9,-23,-10,-2,-7,-10
7231882,-3,9,19,18,5,-4,2,-4
7231882,-6,-4,3,4,8,0,9,-9
7237883,19,3,-5,1,-8,-2,-2,23
7237883,21,1,-4,-9,-6,-3,2,-4
7254884,-10,-12,1,4,0,-2,-13,0
7254884,7,-6,-6,-4,-4,-2,16,-11
7256884,8,0,6,7,6,2,-12,-7
7256884,-43,6,-9,-1,1,6,44,9
7268483,16,-10,-10,-4,-5,0,-7,1
7268483,4,22,11,0,0,-1,-6,4
7277182,1,-16,2,-1,2,-2,-9,1
7277182,14,2,-13,2,-2,-3,-19,-5
7291501,-3,2,-4,-2,0,2,1,7
7291501,-5,1,-17,-11,-1,0,7,-12
7298504,-7,-7,13,1,-1,-2,-3,-13
7298504,6,-12,-8,-5,-5,-3,-6,3
7315503,-7,4,-11,-3,0,-1,4,-2
7315503,15,2,7,-3,-5,-3,-13,5
7317510,-20,5,-10,-7,-2,-3,-3,-3
7317510,-2,-4,10,6,5,0,-16,-6
7328503,9,6,-3,-6,-3,-1,16,5
7328503,-7,-16,-4,-3,-6,-4,-19,4
7337503,0,9,-4,-1,0,0,22,-5
7337503,0,-4,9,2,0,-2,-3,-2
7351699,13,9,5,-3,-3,0,-6,-5
7351699,-14,-10,-7,0,0,-1,-8,3
7358735,6,7,7,3,0,-1,-4,-4
7358735,5,-6,8,-4,-4,-4,-7,-7
7375476,-24,-10,-30,-6,-2,-2,0,-2
7375476,1,3,24,6,3,1,9,11
7377491,-3,-3,-48,-10,-5,-1,7,-6
7377491,-8,6,22,3,0,-3,4,-1
7388238,25,1,-3,1,-3,-2,-9,-16
7388238,15,-4,-15,0,-1,0,-6,14
7397239,-3,4,28,0,2,1,-2,12
7397239,-5,-2,-6,-6,-2,-4,-14,1
7411239,-2,2,9,4,3,2,11,0
7411239,-9,3,-1,-1,-3,-4,-17,-8
7418469,19,-9,-2,0,-3,0,5,-1
7418469,-39,0,-2,-4,-1,0,-5,-4
7435533,-10,1,33,2,1,0,2,1
7435533,-1,-2,-15,-3,-3,1,21,-4
7437240,-3,-9,-4,-1,2,2,-16,0
7437240,7,-1,9,2,-1,-1,-2,1
7448240,2,0,-5,-5,0,0,2,5
7448240,-18,-6,-5,-5,-1,-1,-8,-13
7457240,-1,1,-1,1,-3,-1,3,-1
7457240,8,3,-9,-2,0,-2,1,-2
7471465,-7,-3,8,1,0,-2,-7,-1
7471465,6,-3,-3,-4,-4,-2,-10,1
7478466,-13,-3,-3,-7,1,-3,-9,-4
7478466,6,5,-13,1,0,0,1,-1
7495853,-4,6,-2,-3,1,-1,31,3
7495853,4,-10,8,2,1,1,-11,0
7497476,-3,-5,-2,4,1,1,2,-1
7497476,-8,-4,-8,-6,-8,-3,4,0
7508477,-6,-10,14,-9,-2,-3,-21,-1
7508477,3,11,-17,-1,-2,-2,25,-3
7517477,-9,4,1,2,-1,-3,-3,-5
7517477,9,-8,11,-1,0,0,-6,-3
7531767,-4,6,-9,6,-5,-2,-10,1
7531767,10,0,8,-7,0,-2,-3,0
7538479,-16,-18,-8,-3,1,-1,-10,-10
7538479,-2,18,12,4,-2,0,-1,1
7554479,-14,-7,-8,-4,-1,-2,7,-4
7554479,1,1,5,-1,-2,-1,-4,-5
7561831,6,2,-4,8,-1,-1,16,5
7561831,4,13,-9,-3,-3,0,-6,3
7568575,-5,-18,-7,-4,-6,-5,-13,-12
7568575,1,-1,-4,-2,-4,2,23,-4
7578275,-21,-1,9,-14,6,-2,-22,2
7578275,10,-14,0,-1,-2,0,1,12
7590784,4,5,-20,-11,-4,-1,2,0
7590784,-6,9,-5,3,-2,-3,-13,-2
7598784,-2,-12,1,-1,-4,-3,-17,-28
7598784,7,5,2,-12,1,-2,4,-1
7613788,1,-3,0,8,2,-1,-8,2
7613788,-6,-8,0,-4,-4,-2,3,4
7620787,-1,14,-20,2,-4,0,7,6
7620787,-4,-8,0,1,-1,0,3,-4
7628795,6,-1,3,3,-2,-1,0,-4
7628795,-4,-1,-12,-6,0,-4,-11,-4
7637787,2,7,8,-2,-5,-2,-4,2
7637787,-3,-20,-7,2,-1,-1,0,1
7650794,-4,0,5,1,2,0,0,-3
7650794,2,1,8,3,-2,-2,-4,2
7657794,2,-1,6,5,2,0,-8,0
7657794,-5,3,-7,-5,-4,-4,-1,-4
7674348,5,-1,6,1,1,1,-2,9
7674348,1,-7,0,-4,0,-2,-9,-2
7680830,0,21,6,1,-3,-2,13,-2
7680830,-4,-22,-6,0,2,2,11,-2
7687821,-1,3,-2,-2,-3,0,-4,2
7687821,-7,6,-3,-1,-1,-1,7,1
7697821,4,-23,-8,0,-1,1,-8,12
7697821,4,10,-13,-2,-1,-2,14,-1
7710821,-1,-2,1,-2,-1,-1,0,-5
7710821,6,8,8,0,1,-2,0,-2
7717827,-13,-11,-5,-4,-3,-4,0,-3
7717827,-1,0,0,1,-2,-2,-8,0
7733822,-3,-11,6,-4,1,-1,-5,-3
7733822,-16,4,-5,2,-3,-1,-2,-3
7740863,3,-5,-13,-6,-6,0,0,2
7740863,-2,1,0,-1,-1,-4,-14,-5
7756824,0,5,-6,0,0,1,18,3
7756824,0,-6,0,-3,-2,-2,-6,-6
7758859,-4,1,4,-1,0,1,-4,-4
7758859,5,3,-3,1,-3,-2,-10,1
7771330,-2,-2,-22,-8,-2,1,5,1
7771330,-8,-1,5,0,-5,-2,8,5
7778367,26,-2,3,-8,-4,-3,-14,-11
7778367,-8,10,-4,8,5,1,3,-3
7793841,2,7,8,1,-3,-3,4,0
7793841,-5,-12,-19,-8,2,0,0,1
7800875,-2,-2,-5,-4,-6,-7,-10,-5
7800875,-6,-9,12,-7,-1,1,32,13
7816843,8,-5,0,3,-2,-2,-9,-2
7816843,-4,3,3,2,-3,0,-12,-7
7818843,3,2,4,0,-2,-3,7,4
7818843,-19,6,-3,-2,0,0,1,-8
7830844,11,4,9,3,-2,-2,-16,7
7830844,-27,1,-9,-6,-1,-1,13,-6
7837844,-23,-13,-3,2,0,-2,-2,1
7837844,6,3,0,-2,-3,-3,-11,-5
7853845,-15,-4,-11,-4,-4,-4,-7,-5
7853845,11,-6,15,3,1,1,4,2
7860885,3,2,-7,0,0,-1,4,-2
7860885,-2,-2,6,0,-1,0,-8,-4
7877600,-12,-5,-6,-2,1,-1,1,1
7877600,13,1,11,-1,-1,-1,-6,3
7879631,1,-8,-6,-1,0,1,13,-2
7879631,-8,-7,-6,-4,-2,-2,-4,5
7891054,16,16,5,0,-2,-1,2,-11
7891054,4,2,-1,2,-1,-1,-5,1
7898059,4,-1,-13,-6,-2,-1,7,-1
7898059,-2,-3,-1,3,2,-1,-15,-4
7913860,-16,-3,-6,-6,-3,-2,2,-5
7913860,8,-26,-3,-2,0,1,5,4
7921861,-3,20,8,2,1,0,-6,-1
7921861,10,-8,-9,-3,-4,-2,3,0
7937063,-11,5,12,2,0,-2,-16,-2
7937063,12,1,-21,-4,-3,-1,16,0
7938862,-2,-1,0,-1,-1,-2,-6,-5
7938862,-4,0,6,2,0,0,-7,-3
7951898,-6,-4,0,-2,-4,0,13,3
7951898,1,4,4,1,2,-1,-9,4
7958005,0,-9,-4,-1,-4,-2,9,-3
7958005,10,5,0,-1,0,-2,-3,-5
7974375,-1,-5,-2,1,4,4,-2,-4
7974375,1,4,-1,-2,-2,-3,-6,-5
7981385,0,-2,-3,-2,0,0,13,7
7981385,-12,-3,13,0,0,-2,-13,-2
7997629,2,-9,-23,-2,-1,-3,1,-2
7997629,14,7,3,0,0,-1,-12,-4
7999381,-1,0,10,-1,-1,1,40,4
7999381,-7,-8,-2,-2,-3,3,0,-3
8011596,10,-5,-1,0,-2,-3,1,3
8011596,-10,-1,5,-2,-3,-1,-13,-4
8018627,-13,1,-6,-1,-2,-2,-9,-1
8018627,2,-14,-4,0,-1,-2,6,1
8034449,-5,12,-7,-4,-3,-1,-5,-11
8034449,4,1,0,2,0,0,-7,-8
8041424,-15,-14,13,-1,-2,-3,-12,-3
8041424,8,2,-12,-2,-2,-2,4,3
8056629,-2,-5,5,0,0,0,-4,-1
8056629,2,1,-2,-2,1,-3,4,0
8065690,-2,2,-5,-2,0,0,-10,-4
8065690,2,2,-2,-3,-2,-3,-3,-1
8071171,3,2,8,4,-1,-2,3,-1
8071171,-10,-3,-14,-4,-3,0,3,-1
8078676,13,-3,7,-1,0,0,-2,0
8078676,-7,2,-1,-2,-1,1,-11,0
8093683,2,5,8,-1,-3,-3,5,3
8093683,-4,-4,9,-2,-1,-4,3,-1
8100805,-2,-5,-35,-8,-3,-3,-11,-6
8100805,4,-6,5,2,1,1,36,7
8116684,-23,-2,-5,-3,-1,-3,-17,-2
8116684,10,-10,6,4,0,0,3,5
8118684,-9,5,1,-2,1,0,-4,-3
8118684,3,3,-2,4,0,-2,-5,-5
8131688,-2,-5,-4,-1,-3,-1,-8,3
8131688,-4,5,-4,-2,-1,-1,-3,-1
8137685,1,-7,0,-1,-1,-1,-6,0
8137685,-6,4,-8,-5,-3,-2,-6,-5
8153879,1,-2,4,0,2,-1,2,2
8153879,-3,-10,-11,-2,-4,0,-6,1
8160686,9,13,14,2,-1,0,-3,-1
8160686,-7,4,18,-3,-2,-1,-6,-5
8177597,9,-8,-29,-5,-1,1,3,3
8177597,-1,8,12,0,3,3,7,-1
8179634,-14,-11,-13,1,-5,-6,-1,-7
8179634,1,4,-2,-8,-3,-2,-15,5
8200672,2,1,1,-1,-3,-3,0,-2
8200672,6,-12,2,0,-2,-3,-5,-3
8201590,-6,-5,2,2,1,-2,-18,-2
8201590,-16,-1,-21,-8,-3,0,22,7
8213591,16,6,4,0,-1,-1,-8,1
8213591,-6,-10,-9,-7,-3,-2,5,0
8221592,10,16,9,8,3,-1,-5,1
8221592,17,-13,-2,-4,-1,0,-3,-8
8236593,3,2,0,0,1,0,1,3
8236593,-7,-4,-2,2,-1,-1,2,-1
8238593,3,-2,0,-5,-2,0,-6,5
8238593,-1,2,-4,-1,-2,-5,-5,-10
8250594,-9,-6,2,-2,-6,-3,1,-6
8250594,0,8,0,1,-1,-4,-10,2
8260643,-1,-3,0,2,2,2,9,-1
8260643,-9,-6,-2,-4,-7,-3,-6,0
8274542,-4,-3,-1,1,-1,-2,2,-2
8274542,5,4,-3,-1,-1,-3,9,-1
8281373,-6,3,-8,-3,-5,-2,-25,0
8281373,7,3,29,8,5,0,5,-2
8297343,-17,4,-27,-2,0,-1,-4,-3
8297343,2,-11,15,-3,0,-1,-2,-4
8299303,-2,-6,-4,-3,-1,0,-3,1
8299303,4,0,-23,-12,-11,-4,7,-10
8311375,3,1,27,24,16,-1,0,-4
8311375,-7,5,0,-1,-3,-4,-21,-4
8320553,9,-11,-9,-10,-4,-4,4,-7
8320553,-8,-1,-12,-1,-10,-3,-10,7
8334458,12,0,-1,20,0,-3,2,-2
8334458,-8,6,3,-8,1,0,1,2
8341445,-8,-6,11,10,6,0,4,1
8341445,4,-3,-10,0,-4,-1,9,-6
8357341,2,-3,-1,1,2,0,0,-2
8357341,-14,-7,-9,-15,-8,-6,-9,-5
8359307,2,-2,-3,-4,-1,0,4,3
8359307,-1,11,8,7,4,0,-14,15
8371314,19,-13,-10,-20,-4,2,39,-27
8371314,-74,-7,-4,11,-7,-4,-3,-2
8380345,9,-1,4,-4,2,-2,-2,-9
8380345,6,13,9,3,1,-2,-13,0
8393821,1,0,3,-10,-4,0,-8,9
8393821,1,-24,4,4,1,1,2,3
8400821,-3,6,-2,-1,-2,-3,-10,-9
8400821,-7,-11,-15,3,5,2,17,7
8417021,2,1,8,-11,-9,-4,-12,2
8417021,20,12,2,10,2,5,10,1
8418822,-5,-10,-5,-8,-7,-3,-15,3
8418822,-8,9,3,2,8,0,-8,-11
8430823,7,4,0,-5,-3,0,0,5
8430823,4,-7,-6,-1,2,0,-1,-3
8439824,10,-14,0,-6,-2,0,14,10
8439824,-2,2,4,2,1,1,-16,-4
8453825,-7,1,-4,-1,-2,1,31,7
8453825,11,-5,0,-9,-2,0,-4,0
8460825,-1,13,-8,-1,-4,-3,-3,1
8460825,0,-15,9,-4,-1,-5,-9,-6
8477088,-8,-7,-6,8,3,0,-16,4
8477088,30,26,-2,-9,-2,-1,2,-4
8479645,2,-12,-2,-3,-5,-2,12,-4
8479645,2,-16,-15,-1,0,-1,-4,-5
8491643,-16,9,11,-7,-3,-3,-11,-5
8491643,19,14,12,4,0,0,9,6
8500649,3,-3,-11,6,1,0,-2,-2
8500649,-19,-3,1,-1,0,0,-1,-8
8513595,-2,5,-9,-3,-2,1,-5,-3
8513595,-6,-29,12,-2,-2,-2,-4,0
8521596,-8,4,-8,-1,-2,0,-3,11
8521596,14,-6,-17,-1,-1,1,0,-19
8537596,-5,-8,-16,-7,-1,-4,-1,4
8537596,3,15,-11,0,1,2,0,-3
8543645,-1,3,3,7,1,-2,1,14
8543645,8,1,20,-2,-1,-2,5,20
8551624,-4,-4,-12,-9,-4,-1,-8,-1
8551624,-7,-6,-7,-2,-3,-1,-17,-14
8559597,-6,-2,1,1,2,0,25,-10
8559597,-6,7,2,-6,-3,0,1,-11
8574655,-8,-7,12,-6,-5,-5,-30,-11
8574655,7,1,-3,2,-1,0,31,13
8580803,-5,0,-4,0,-1,-1,-13,-11
8580803,-2,0,1,3,0,0,-1,0
8597022,-2,-6,1,2,0,0,-2,0
8597022,-2,-3,-13,-10,-2,-2,-13,-4
8604809,-5,6,7,6,1,-3,-4,-3
8604809,3,-6,-1,-13,-2,-1,9,12
8610845,3,11,15,2,3,1,-3,-8
8610845,-2,-14,-34,13,-5,0,-4,1
8620810,-2,2,13,-22,-2,-1,8,-7
8620810,-2,2,12,42,7,0,-10,12
8633811,-6,17,2,-7,1,-3,-14,7
8633811,4,8,3,-2,2,1,59,2
8641025,-2,-27,-10,-7,-6,2,-3,-4
8641025,-5,-7,-16,-19,-8,-5,-11,-10
8657058,2,-3,-8,1,-4,0,12,4
8657058,-6,9,13,12,3,-1,-22,-5
8663019,-1,2,-2,2,-1,-5,-7,1
8663019,-5,3,6,-8,-2,-2,2,-7
8672040,-2,-3,-3,0,-3,-2,-2,6
8672040,-2,-9,3,-5,-3,-3,-10,-8
8680540,17,7,-16,0,-1,0,-1,-1
8680540,-8,-20,-10,-7,-1,1,19,-10
8695048,-8,0,3,5,2,1,-3,0
8695048,-23,-3,-4,-7,1,-1,-29,1
8701047,8,0,7,0,-4,-5,3,-6
8701047,6,13,-8,-2,-4,-4,-15,0
8717328,-5,-7,9,1,0,4,30,5
8717328,2,-7,11,-1,1,-4,-12,-2
8723211,-1,-10,-17,0,1,0,-13,-6
8723211,5,8,-1,-2,-6,-2,1,-2
8740084,-11,-5,-6,-6,-1,-3,-6,-7
8740084,0,16,-5,5,4,2,8,5
8742073,-8,2,26,-2,-2,1,-1,-8
8742073,4,-13,-4,-3,0,-1,5,3
8754050,0,-4,-2,1,0,-2,-1,0
8754050,5,-5,-7,1,-4,-2,-2,-3
8761299,-12,5,-4,-6,1,-1,-1,4
8761299,-2,1,-13,-2,-6,-1,-2,-2
8777505,8,2,15,5,4,1,-1,3
8777505,-3,5,-5,-7,-3,-1,-6,-1
8783260,4,1,-1,3,0,-1,4,5
8783260,-8,-1,6,2,0,0,-10,-2
8800547,-7,-4,-14,-14,-10,-3,-2,-5
8800547,15,-8,-3,-2,3,-2,-7,12
8802263,4,4,2,5,2,0,-10,1
8802263,-7,-3,4,-4,-1,-2,9,0
8814517,0,-4,-9,2,-4,-3,-8,-4
8814517,17,-1,-3,-10,-6,-5,0,9
8821262,5,-3,1,0,1,0,-3,-8
8821262,-13,2,2,1,-4,-3,-9,-6
8837263,10,-4,-5,-5,-1,1,0,-1
8837263,-7,10,-1,0,-1,0,5,-4
8843264,-15,-18,8,3,0,-3,-1,4
8843264,2,6,-19,-7,2,-1,1,-2
8860270,8,0,4,3,-2,-1,3,-3
8860270,-2,1,17,2,0,0,1,-3
8862270,-9,1,-16,-2,-2,-3,0,7
8862270,2,7,-8,-3,1,0,6,-5
8874672,-8,-17,-6,1,1,-1,-16,-5
8874672,1,7,6,3,-3,-1,13,-6
8881220,5,14,7,1,-2,1,-2,0
8881220,0,-12,3,-1,0,-2,-10,3
8897440,1,-6,0,1,0,-2,-20,-4
8897440,-5,-12,-8,-2,-1,-1,9,-4
8903230,-9,-6,-1,0,0,1,6,1
8903230,14,16,-3,-3,-4,-3,-3,3
8920225,-1,-3,-1,-1,-1,1,-3,6
8920225,-8,0,-3,-2,-1,-3,-9,-7
8922227,3,4,-5,-4,-5,-1,-6,-8
8922227,-1,-4,6,3,0,2,8,2
8934480,2,-5,-1,-3,0,-3,1,0
8934480,-5,-3,-10,-2,0,-1,6,-2
8941594,2,4,-6,0,0,-1,-4,-2
8941594,-8,-11,8,0,0,-2,-8,-4
8957596,4,3,-25,-1,2,0,6,-4
8957596,-4,-4,6,-8,-2,-2,-13,-3
8963515,-1,6,11,4,-2,-2,2,-3
8963515,-15,-4,-25,-13,0,-1,-1,-4
8980521,1,0,11,4,0,-1,7,4
8980521,5,-19,-5,1,0,0,-11,-5
8982029,-9,-9,-4,-4,-4,-2,19,0
8982029,0,0,6,-1,-1,0,-7,-9
8994330,6,5,3,0,-1,0,-9,0
8994330,-6,7,-8,-3,-1,-1,-4,-1
9001366,0,2,5,-1,-1,-1,-2,-8
9001366,-3,-12,5,3,0,-2,-15,0
9016032,-10,-6,0,-6,-5,-1,1,5
9016032,-16,4,-3,1,-1,-1,5,3
9025067,4,1,-6,0,-1,-2,-1,-3
9025067,0,1,-3,1,0,-2,-9,1
9040165,-4,-3,3,-1,-3,-1,-3,-5
9040165,-6,-8,-8,-4,-3,-4,-3,-1
9042031,-4,1,4,-1,-1,-1,-6,4
9042031,12,11,23,6,-1,0,6,0
9054032,-13,-15,-55,-13,-4,-4,-4,-2
9054032,14,23,11,0,0,-1,-1,-3
9061293,-17,0,0,-3,0,-2,3,-3
9061293,21,-17,-28,-4,-5,-1,0,4
9077486,-17,-3,20,4,3,0,1,-6
9077486,-5,-7,-7,1,0,-1,-17,-3
9083485,12,-3,-8,1,0,1,18,-2
9083485,-13,5,16,-1,-4,-3,2,0
9100487,1,12,6,2,-1,-1,-4,-1
9100487,7,-9,-8,0,0,0,1,-4
9102486,0,0,5,-1,0,-3,-10,-2
9102486,3,1,-5,3,-1,-1,4,0
9114487,4,-5,2,-8,-3,-2,1,-4
9114487,-4,8,-1,1,-1,-3,3,0
9121487,3,-24,-5,-2,-2,-1,-3,2
9121487,2,0,-4,0,1,1,-14,5
9137488,0,7,6,1,0,0,33,1
9137488,-3,2,3,-2,-2,-1,0,1
9143746,1,-3,-8,-2,-2,-3,-14,-1
9143746,0,11,16,-2,0,2,7,-1
9160751,-4,-5,-11,2,-2,-4,-6,2
9160751,3,-1,-2,-1,1,-3,-9,-9
9162490,-19,-2,-6,-3,-3,-2,7,3
9162490,5,2,-4,-1,0,-2,-5,-2
9175515,3,-14,6,-1,-1,0,11,2
9175515,3,-2,-5,1,-1,0,-10,1
9181016,8,-3,-6,-3,-1,-1,-4,-2
9181016,-9,5,-1,0,-3,-2,5,-6
9197393,8,8,-1,0,-3,-2,-5,-5
9197393,-11,-11,-5,-6,0,-2,-3,-1
9204026,3,-6,5,1,1,1,-9,-1
9204026,-11,-2,-3,-1,0,-2,7,-1
9220392,11,10,4,0,-2,-1,-16,-1
9220392,-1,-3,0,-6,-6,-3,-3,7
9222028,3,11,1,1,-1,-1,-3,-9
9222028,-6,-29,-10,-2,-1,-1,-12,-8
9233313,3,12,16,2,1,-1,2,-2
9233313,-12,-1,-11,-3,-1,-2,-2,1
9243029,6,7,-3,-1,-2,-1,-9,1
9243029,5,-14,-4,-3,-1,1,6,3
9257361,-5,1,44,7,1,-2,-4,-6
9257361,-4,-12,-3,-6,-3,0,2,-3
9263320,0,15,8,0,0,0,5,4
9263320,-7,-16,-12,-4,-4,-4,-5,-3
9280627,-4,-8,-13,-1,0,-1,1,1
9280627,-5,10,6,1,-1,0,45,4
9282339,18,-3,0,-3,-3,-3,-8,-8
9282339,-5,15,3,-1,-1,-3,-3,1
9302677,2,0,-6,-2,2,1,-7,-6
9302677,-12,-16,-11,0,-3,-1,0,6
9304341,-10,11,4,-1,-2,-2,15,-6
9304341,6,5,1,-4,-1,-1,3,4
9317674,-2,-13,-13,1,0,-4,-7,-6
9317674,-8,-2,4,1,-2,-2,-11,-1
9323341,17,-2,-5,-2,-1,1,1,8
9323341,9,21,3,1,-2,-2,2,-1
9340342,-26,-15,-1,-6,-3,-4,-6,-4
9340342,4,-17,3,5,-1,1,-2,-7
9342378,-14,-1,-1,-10,0,-1,-5,-1
9342378,-1,-9,-4,0,-1,1,-3,-2
9353645,4,11,-26,-2,-4,0,6,2
9353645,10,10,1,-2,-3,-2,-9,-1
9363343,-7,-14,-6,0,-1,-3,-9,6
9363343,-4,4,3,-3,0,3,10,-1
9377369,-10,3,11,1,6,-5,-11,-8
9377369,-2,-9,-5,-2,0,0,-1,-3
9383384,-13,-7,-8,0,-5,-2,-20,-5
9383384,-7,-7,-6,-15,-5,0,15,-1
9400642,21,9,-9,-2,-9,-2,6,4
9400642,-8,3,21,18,18,0,-26,-9
9402644,4,-16,-5,-1,-4,-1,8,4
9402644,2,-5,-17,-1,-13,-4,-1,1
9413614,-6,-3,17,-2,10,-2,-10,-6
9413614,5,16,-2,-8,-1,1,7,-5
9423414,-3,-5,1,2,1,-1,-19,-21
9423414,-3,-8,-4,2,1,-1,-6,2
9437379,3,4,-15,-17,-11,-1,17,11
9437379,35,-2,0,-5,-5,-6,-9,12
9443646,-51,0,1,0,3,-1,15,-3
9443646,36,8,17,-2,1,3,29,-8
9459723,-8,6,-11,9,0,-1,-14,-1
9459723,-2,-16,0,-5,-1,1,10,-4
9466523,7,-5,-5,-2,-5,-2,-9,0
9466523,-9,1,12,9,0,-4,-12,3
9473695,1,4,-20,-11,-1,-1,-5,-2
9473695,3,8,-1,3,-2,0,7,3
9490492,14,0,16,-1,-5,-2,-6,9
9490492,-25,-2,-11,1,4,-1,0,-6
9497493,8,-6,5,8,-5,2,5,-1
9497493,-19,2,-13,-13,-5,-4,-18,-8
9503736,12,5,1,0,4,0,6,1
9503736,-1,-8,2,1,0,-2,-5,5
9519732,6,-1,-6,-2,-2,0,-5,-5
9519732,-15,-14,1,-20,-11,-5,3,-6
9526736,2,7,-3,20,2,-2,-11,-5
9526736,-16,3,4,0,5,-2,-3,4
9533735,14,-8,3,5,3,1,5,-6
9533735,1,10,-6,-4,-6,0,21,1
9543496,3,-14,-5,-9,-3,-1,-2,-7
9543496,3,1,-13,-2,-5,-3,-15,0
9557738,-2,-9,30,6,0,-3,-12,-8
9557738,-15,7,-3,1,3,1,0,-1
9563733,-10,-8,8,-4,-2,0,10,7
9563733,8,-1,-7,4,3,0,-10,-4
9579591,-6,12,14,-2,0,1,2,-2
9579591,16,-13,-24,3,-4,-4,-8,-2
9586416,-23,-2,-6,-5,-2,-2,6,31
9586416,1,-1,8,-5,-2,-3,-10,-7
9593091,-7,-11,-3,-3,-1,-2,7,-8
9593091,-3,7,16,7,-2,-3,-8,-4
9603085,3,-1,-14,-5,0,0,3,4
9603085,-2,-4,5,4,2,-1,-11,-3
9617123,-9,-3,-11,-8,-9,-1,15,-1
9617123,-8,-3,1,7,4,1,25,-1
9623086,3,-2,0,-4,-5,-3,-5,-9
9623086,6,2,1,0,-2,2,10,3
9639088,-5,-2,-8,-1,0,-1,-9,-1
9639088,-1,-5,-2,5,1,0,-9,1
9646094,5,4,0,-7,-5,-2,-3,-11
9646094,-4,1,-5,2,1,-2,-12,-4
9662367,-6,-2,-10,-3,-1,-3,1,4
9662367,7,-1,4,-8,-1,-1,-1,0
9664123,-3,3,-10,8,-2,-1,-2,0
9664123,-1,-8,1,-16,-1,-3,-6,-6
9677888,1,5,-6,9,-3,1,-1,8
9677888,4,-11,-3,-23,3,-1,-11,-1
9682899,7,7,6,25,5,2,17,-3
9682899,-13,-13,-13,-15,-6,-2,3,-1
9699181,12,-3,6,14,-3,-4,-2,1
9699181,-21,3,0,-8,-3,0,-13,-7
9705898,6,-1,-18,-11,1,-4,-32,-2
9705898,5,-1,3,7,0,5,78,6
9721902,-8,6,-2,-5,1,2,8,-3
9721902,11,-6,-6,2,-8,-5,3,5
9723900,14,2,15,-2,0,-3,-20,-6
9723900,-3,-2,-12,-1,0,-4,-29,-8
9737236,-1,6,4,-8,-1,-3,0,-4
9737236,1,-6,3,10,3,2,16,3
9743184,-5,-3,1,-2,-5,-1,5,0
9743184,1,7,11,-4,-5,-2,-17,3
9759181,-4,-7,1,-2,0,-2,0,1
9759181,-22,6,-7,6,-2,-2,-17,-5
9766237,6,3,-1,-8,2,1,10,-1
9766237,-11,-13,-7,-1,-3,-3,-6,-7
9782764,9,8,-10,-4,-1,0,-7,3
9782764,6,3,17,5,2,0,-9,-2
9783754,-8,-13,5,1,1,2,33,-1
9783754,-1,4,-33,-7,-3,-3,-9,-6
9797754,-6,-2,-3,-4,-2,-2,0,3
9797754,16,6,-6,1,-4,-1,-3,0
9803755,2,0,-12,-5,-3,-2,-25,-9
9803755,-10,-10,22,9,6,3,18,5
9819044,4,-24,-18,-4,-1,0,-8,-6
9819044,1,10,-9,0,-2,-2,5,-2
9826045,-6,-4,12,0,-1,-1,-6,1
9826045,2,16,-4,-1,-1,-1,-12,1
9842757,-10,-7,-1,-3,-1,-1,-8,-6
9842757,6,0,5,1,-2,-1,5,1
9843758,0,6,-5,-5,-2,2,11,1
9843758,8,3,6,1,-3,-3,-5,0
9857758,-7,-3,4,-1,1,-1,4,2
9857758,9,-7,-6,-1,-1,-1,-13,-7
9863758,-5,3,12,0,0,-1,9,4
9863758,-9,-1,-14,-2,-2,-1,4,-2
9879547,0,-3,0,-2,-1,0,-6,2
9879547,-6,-8,-3,-2,-1,-2,-8,-4
9886350,4,-11,-7,-6,-2,-3,-11,3
9886350,-1,20,19,5,0,-1,-3,-6
9902354,-13,-4,7,-1,2,-1,-5,-3
9902354,-7,3,1,1,-1,0,9,0
9904350,5,0,-5,-1,-2,-2,-9,-3
9904350,0,-6,-16,-3,-3,-2,-8,-2
9917691,-3,7,0,1,0,1,8,3
9917691,0,-6,2,0,1,0,-15,2
9923645,-9,-19,-6,-1,-1,1,24,-2
9923645,3,5,0,-3,-3,-3,-10,-3
9939352,-2,-3,8,3,-1,-3,4,-3
9939352,2,-1,-10,-2,-2,-2,-6,-1
9946692,1,15,-7,-4,-1,-2,2,-8
9946692,5,-22,7,2,0,1,6,7
9962694,2,-8,2,-6,-2,-1,-11,1
9962694,-21,3,4,-2,-1,0,6,-7
9964387,18,12,0,1,-2,-5,-9,0
9964387,6,-2,1,-4,-2,-2,-1,3
9977682,6,6,1,0,0,-4,-4,-1
9977682,9,-7,-11,2,2,3,-2,0
9983190,-10,2,9,0,0,0,6,0
9983190,-4,5,-6,-2,-7,-3,-6,0
10007337,1,1,-14,-3,-2,-1,1,-1
10007337,-1,-12,-3,0,-1,0,10,-3
10009186,3,-1,3,-2,-2,-2,-12,10
10009186,-1,7,-2,5,3,-3,-5,-3
10022186,1,-1,1,-3,-2,-2,3,-2
10022186,-4,-8,-9,-5,-2,-3,-13,1
10024187,-9,-6,-2,-2,-3,0,11,-2
10024187,3,6,3,-3,-2,-1,3,-2
10037391,-12,-9,-5,-1,-1,-1,2,0
10037391,-2,3,6,3,-1,-2,-10,3
10043187,-6,-1,-7,-2,-1,-1,-5,-7
10043187,-7,-3,2,1,2,0,4,-3
10059192,-12,11,-19,-2,-2,-2,-4,1
10059192,4,-6,9,0,-2,0,7,0
10066493,4,-13,-13,-2,-1,0,12,2
10066493,-11,1,2,-4,-3,-2,-18,0
10082329,3,-3,-3,1,-2,-1,-7,1
10082329,-2,2,1,-5,1,-1,12,-3
10084371,9,8,-13,-1,0,-2,-12,-1
10084371,-14,-3,8,-4,-1,-1,4,-1
10096337,-5,-20,12,2,1,-3,-6,-3
10096337,-8,-1,-14,-3,-3,-3,1,6
10105337,-4,4,1,0,0,0,1,-5
10105337,3,5,-1,2,1,0,-1,-1
10119610,10,-9,-2,-7,0,0,-1,-2
10119610,0,2,1,1,-2,-1,-8,-3
10126604,-6,-8,4,-2,-2,0,17,-4
10126604,-5,-4,-3,4,2,2,5,-5
10143608,1,7,-4,-5,-5,-7,-31,-5
10143608,9,-3,0,-1,-2,1,10,0
10145374,-5,14,3,0,-1,1,-8,-2
10145374,6,-15,-6,-3,-3,-4,-11,-2
10156590,0,1,-3,-1,2,3,6,-6
10156590,-12,7,3,-2,-1,-2,-9,-5
10165571,-5,-11,-4,-1,-3,-2,-8,-4
10165571,6,-10,-3,0,-2,-1,6,0
10179082,-7,-1,0,1,-2,-1,-11,-1
10179082,8,4,2,-8,-5,-2,2,2
10186589,-5,6,-2,3,0,-2,-4,2
10186589,8,-3,11,1,-3,-1,5,7
10202712,-1,3,-18,-1,1,3,13,-6
10202712,0,-7,5,-2,-3,0,-6,0
10204591,-11,-2,5,-2,-3,-3,-6,-3
10204591,19,6,-4,-2,-2,0,-16,5
10216715,3,3,-7,-1,-1,1,12,6
10216715,1,-15,7,-2,-3,-5,-16,-4
10224714,-8,-2,-8,-5,-1,1,11,2
10224714,-9,1,3,1,0,2,30,0
10238593,2,-4,4,-3,-1,-2,-4,-3
10238593,1,6,-1,4,2,-2,-5,-1
10247593,11,-7,1,-1,2,4,2,2
10247593,-12,3,-11,-2,-3,-4,-8,-6
10262669,0,-3,0,-10,-3,-1,-4,-5
10262669,-5,1,-3,6,1,0,10,1
10264736,2,-7,-4,0,-4,-3,-9,-1
10264736,0,1,-2,-6,-3,-1,2,-2
10276678,-4,9,8,0,-4,-3,-4,-7
10276678,6,1,-5,1,1,1,-1,3
10284712,-12,-4,-2,-4,-2,-4,-4,3
10284712,18,-1,-5,0,0,-2,-6,4
10299712,-12,-5,1,0,1,-1,-2,1
10299712,-5,7,8,-3,-1,1,2,-2
10305685,16,-8,-8,1,0,-4,-7,-8
10305685,-11,0,-4,-9,-3,-4,-5,-5
10321686,4,-11,-2,0,-1,-2,-5,-1
10321686,-5,0,-9,-7,-1,-1,8,-1
10323686,-3,-5,1,4,1,0,-17,1
10323686,6,16,-10,5,1,-1,-3,-1
10336710,-2,-5,18,-4,-4,-1,8,-1
10336710,2,2,-16,1,-1,2,-13,-2
10344702,-2,-8,-1,-4,-2,-2,4,-3
10344702,-6,-7,-2,-2,-1,-1,0,-4
10359709,1,0,-3,5,-1,0,5,3
10359709,-6,0,0,-3,-1,0,0,-7
10374481,-1,9,-2,3,-2,-2,1,-3
10374481,-15,-16,0,-8,1,4,-2,-4
10382482,8,9,5,4,1,-3,-8,6
10382482,-1,-5,2,0,-4,-3,9,1
10383673,10,6,-7,2,-2,0,-1,4
10383673,-20,-4,3,-15,6,-1,-4,-7
10404490,0,-1,-5,4,-4,-3,7,-3
10404490,0,2,0,-7,3,-3,-21,-4
10405490,-7,-4,1,-1,-4,0,25,0
10405490,12,0,-3,1,-5,-4,-6,2
10420489,3,4,-1,-3,1,1,14,7
10420489,0,9,2,-1,-3,1,-1,-8
10426632,-3,-5,-28,-8,-3,-2,-14,-2
10426632,-3,-8,10,18,3,-1,-2,6
10441639,-16,6,-6,-14,-3,-5,-14,-21
10441639,5,-18,-10,5,2,-3,7,1
10448638,-11,0,-13,-9,-13,0,13,3
10448638,14,12,17,13,19,0,-17,-11
10464630,-14,3,6,-3,1,0,8,6
10464630,-2,0,7,-12,-8,-3,-7,3
10465636,-9,4,-14,-11,-7,-5,-1,-3
10465636,-8,-25,-5,0,-7,-5,-7,-6
10480210,4,-4,-3,8,4,2,34,20
10480210,22,-4,0,7,2,0,-20,-23
10485725,20,5,17,-2,1,0,-8,0
10485725,-23,2,-12,-8,-11,-1,0,3
10501719,17,4,3,-2,-2,-1,-20,-11
10501719,-6,-7,-3,-4,0,1,20,13
10508020,0,-10,-5,5,1,-2,-5,-11
10508020,-3,3,34,-3,-5,-4,-11,9
10523721,-1,-13,-25,1,0,-1,-12,-3
10523721,-25,0,-18,0,-1,-1,12,4
10524721,8,15,13,-2,4,-2,-22,-4
10524721,7,-6,-3,1,0,3,36,5
10539721,-12,-4,8,-8,-6,-3,-9,-1
10539721,-2,-3,-5,2,-3,-3,9,-2
10545931,-5,-3,-4,1,4,-1,-9,-2
10545931,6,-1,8,1,-4,-1,5,-8
10562758,9,7,-22,-6,-4,-3,-9,-3
10562758,-20,-1,-15,0,1,-1,11,6
10568739,-26,-20,3,-2,1,-1,-8,-1
10568739,3,2,-4,-2,-3,-1,10,-5
10584028,9,-3,-4,0,-1,3,-3,-3
10584028,-17,2,15,0,-4,-5,-5,6
10585027,2,7,1,3,2,1,3,-6
10585027,1,1,-25,-6,-4,-2,-5,-3
10600028,-12,-5,1,-2,0,-2,1,8
10600028,25,0,-5,-3,-1,-2,-3,-2
10606028,3,-1,14,2,-3,-2,9,2
10606028,-7,-4,-9,3,2,2,-3,-4
10621030,-2,-1,-12,-13,-5,-3,0,-2
10621030,-2,-7,0,5,-1,2,-5,-5
10628036,-4,8,-3,-5,1,-1,-2,-4
10628036,1,-3,-8,-4,-3,-1,-2,3
10644037,-1,2,9,6,0,0,1,-2
10644037,2,-9,4,-1,0,-1,2,2
10645033,5,6,12,-4,-3,-3,-3,2
10645033,1,6,-18,4,0,0,-5,-1
10660256,0,-5,19,4,-1,-2,-1,-1
10660256,-1,-1,-8,-3,-1,0,-2,-7
10666253,-10,-4,6,3,-1,-3,-7,-1
10666253,0,3,-9,-5,-3,-4,4,-4
10681557,5,-2,0,1,0,-1,-3,-2
10681557,0,0,4,2,-3,0,14,0
10697551,7,-9,-10,-2,4,0,-21,7
10697551,5,-3,3,-4,-2,-1,-5,-3
10703836,-22,10,3,6,1,2,-5,0
10703836,1,-9,2,-1,-2,-4,-1,1
10704551,-4,4,1,-2,0,0,-4,-4
10704551,-4,-13,1,-1,0,-2,-7,1
10720552,5,-4,-3,0,-2,-2,-2,-1
10720552,-2,9,0,0,0,0,-7,-2
10726664,4,2,3,-1,2,1,16,1
10726664,-6,-2,-3,-3,-4,-3,-10,0
10741695,8,3,0,-1,-3,-1,5,2
10741695,-7,3,-18,-8,1,-1,-4,-3
10748665,7,-13,18,11,-2,-1,5,-7
10748665,-12,12,0,-1,3,-1,-2,-1
10764726,11,-12,-5,4,-2,-2,3,-3
10764726,6,-4,11,-1,-3,-2,2,1
10764726,-14,-6,-5,-12,-4,-1,-2,-7
10764726,8,-4,4,1,3,1,-21,2
10780345,-1,8,2,1,1,0,12,-4
10780345,-4,2,4,-2,-1,1,32,-4
10785866,0,3,-10,-7,-3,-2,7,1
10785866,-7,6,3,1,-8,-2,-14,-3
10801161,0,-8,-1,-3,-3,-3,-16,-5
10801161,8,-6,-1,5,2,0,-14,1
10808149,0,-8,-8,0,-3,0,0,5
10808149,-8,3,1,-3,-3,-2,10,5
10824862,4,8,0,-5,-3,-2,-3,-3
10824862,-8,-2,-3,0,-2,-3,-5,-2
10824862,-2,7,3,2,1,-2,0,-3
10824862,3,-7,0,-4,-1,-2,-4,-2
10840898,-8,3,-5,-6,0,-3,6,1
10840898,-2,2,-4,0,-1,-1,-11,-2
10846165,-1,-9,-2,0,-2,-3,-2,1
10846165,3,-3,0,-1,-1,1,3,-6
10861162,7,-9,-14,-4,-3,-2,3,1
10861162,-2,11,18,1,-3,-1,-15,-4
10868670,-6,-3,-8,-2,-1,-3,14,-2
10868670,1,-3,0,-2,-1,0,-1,3
10884194,-6,-6,-3,1,1,-1,9,-2
10884194,-1,-1,8,-5,-1,-2,-12,2
10885243,-8,-10,-9,-2,-2,-2,-5,-3
10885243,1,-4,-6,-1,0,-3,-7,-2
10900206,-2,3,6,0,1,1,-16,-3
10900206,-1,2,-3,-2,-2,-1,9,-5
10906207,-4,9,10,-5,-2,0,-2,-3
10906207,-4,-8,-3,5,1,0,5,2
10921208,4,0,-1,-1,-4,-2,-7,-2
10921208,-18,-11,-6,-1,0,-2,-2,0
10928209,0,-5,1,-1,-1,-1,-6,-1
10928209,-2,5,-2,2,2,-1,3,-6
10944210,5,-1,-7,-10,-7,-3,1,3
10944210,-10,5,3,2,-1,-2,-9,-9
10945210,15,-2,-2,1,-1,-3,-10,4
10945210,-37,-10,-5,-5,0,3,25,6
10960245,-6,-10,-7,2,1,0,-4,-2
10960245,4,10,5,4,-3,-2,-1,1
10966477,-7,3,3,-3,2,-3,-24,-7
10966477,7,1,-14,1,1,-2,25,-1
10981581,-5,-12,-12,-8,-1,1,-15,-1
10981581,5,-7,-4,-6,-5,-2,1,4
10988162,-1,2,-5,1,-1,1,5,-5
10988162,10,9,2,-1,-1,-3,-12,-3
11004155,-7,-6,13,2,-1,-2,4,0
11004155,4,-2,-10,-4,-1,-2,-4,0
11005155,3,0,-3,2,1,0,6,3
11005155,4,3,7,-1,-4,-3,-8,-2
11020419,-8,1,8,1,-1,-1,0,0
11020419,-9,-7,-29,-5,0,-2,-10,-6
11026419,-3,2,5,-2,-1,-1,20,-4
11026419,1,-2,3,-5,-3,0,5,-3
11041420,3,-1,0,3,4,0,-11,-4
11041420,-2,-7,2,-2,-1,0,8,8
11048377,24,14,1,-2,-5,-2,-7,-8
11048377,-17,-6,0,-1,0,-1,-8,-3
11064424,-4,-4,-2,-2,-2,0,1,-6
11064424,8,3,-3,0,1,0,5,0
11065423,-11,-1,4,3,0,-1,-10,0
11065423,11,-4,1,-5,-3,-1,-2,-2
11080387,0,4,1,0,0,-1,11,1
11080387,2,6,-19,-1,-1,0,-4,-2
11086193,-10,-7,-3,0,-3,-2,1,2
11086193,6,2,7,-1,-1,0,-6,-3
11101190,-9,-10,-14,2,-1,-2,0,0
11101190,9,1,41,-5,-2,-2,-4,-2
11117231,-4,8,-6,-3,-1,1,11,5
11117231,4,-9,-8,-3,0,-2,-12,-8
11123896,2,-1,-4,-2,-1,-1,4,1
11123896,-2,-5,0,0,0,0,12,-7
11124896,3,3,3,1,-2,0,9,5
11124896,-34,-1,2,-3,-2,0,-5,-3
11139897,9,12,3,4,3,1,-2,2
11139897,-4,-11,-1,-2,-4,-3,-7,-4
11146195,-9,-8,-2,-2,1,1,-9,-2
11146195,9,-3,-15,2,0,0,4,3
11162897,-8,4,8,-1,-3,-2,-3,-3
11162897,3,0,-3,2,2,2,-1,2
11168688,2,-9,-3,-1,1,-1,2,2
11168688,-2,9,4,-3,-6,-3,-14,0
11184496,6,-1,-8,-1,2,0,-3,-3
11184496,-9,-4,0,-1,-3,-2,0,5
11184496,-28,-17,5,-2,-3,-2,-6,-12
11184496,4,-2,1,3,0,0,-6,-5
11200504,2,0,-3,-5,-3,0,7,0
11200504,-5,4,-2,1,-2,-1,3,0
11205504,10,-5,12,-6,-1,-2,-8,-2
11205504,1,1,-3,-5,-4,-3,-7,6
11223505,-14,-3,0,-4,-3,-2,-8,-6
11223505,6,8,-4,-2,-1,-2,-3,-2
11228650,-2,1,-12,2,0,-1,-2,3
11228650,16,-5,4,0,-1,-1,7,4
11244679,-5,3,-2,0,-1,-3,3,1
11244679,-1,-6,3,-1,0,0,-2,-7
11251677,-1,1,-4,-1,-2,-1,-2,-2
11251677,15,-2,-8,0,3,3,5,2
11259680,-10,0,7,-1,-3,-4,-5,-1
11259680,-6,-3,-6,-4,-2,-2,-9,-4
11266708,5,-3,-4,-1,0,-1,0,0
11266708,-1,2,-8,0,0,-2,-7,-4
11283298,-15,-13,5,0,0,3,34,1
11283298,17,5,5,1,-4,-3,-15,3
11288306,13,7,-20,0,-3,-1,6,-5
11288306,-1,4,9,2,-1,-2,1,0
11304321,-3,-14,-5,-8,-1,-2,-13,-3
11304321,-5,-14,-15,4,1,-1,-1,1
11305306,1,5,4,0,-1,-1,-2,-2
11305306,1,4,1,-2,-2,-3,16,-2
11327349,-8,6,4,-2,-4,-1,-1,-1
11327349,-1,0,-7,-2,0,2,5,0
11328307,-7,-10,-6,-4,-2,-4,-11,0
11328307,-4,-8,4,1,-2,0,-3,-4
11343310,1,16,0,0,-1,-2,-1,1
11343310,-5,0,7,0,1,0,-2,-9
11348313,4,1,0,-3,-5,-2,9,0
11348313,-14,-19,-6,-4,-4,-1,-7,4
11364612,17,9,-2,-2,-2,-4,-9,2
11364612,5,-4,-10,7,-1,1,8,1
11371043,-1,2,7,-6,0,-1,-6,-3
11371043,2,4,4,5,4,-3,-17,-4
11394602,-3,-11,-9,4,-2,1,17,-3
11394602,-5,8,11,-3,-2,-2,-6,3
11395570,7,0,3,3,-4,-3,-3,0
11395570,-21,-7,-2,-9,2,-1,4,2
11403601,7,-2,3,2,0,-2,-23,-10
11403601,3,-5,-9,-10,-6,-2,-1,3
11409631,-9,-2,-12,2,2,0,17,-5
11409631,-5,0,7,6,-1,-4,-26,-18
11424637,3,0,1,1,3,2,31,13
11424637,2,-4,-3,-10,-1,2,-11,6
11431671,-9,4,-1,-10,-9,-4,-14,-1
11431671,23,5,-6,6,-3,0,4,6
11446850,16,-1,16,1,5,-1,-14,-3
11446850,-6,3,-23,-3,-7,-3,-5,16
11448623,-18,-11,5,6,7,-1,-4,-18
11448623,9,-9,-6,7,-3,-1,-11,1
11462565,13,-3,9,-14,-1,-1,19,-3
11462565,-11,3,7,0,4,0,-15,-10
11469097,11,18,-5,-14,-3,1,3,1
11469097,-1,-17,6,9,2,2,17,2
11483094,-11,1,-13,-1,-5,-6,-29,-1
11483094,-8,-9,2,1,3,-1,18,-2
11490623,-4,-8,25,-1,-3,-3,-13,0
11490623,-10,8,-51,-15,-5,-3,1,-6
11507628,0,2,9,14,-3,0,0,3
11507628,-11,-11,-14,-6,1,-3,-9,-10
11507628,-8,-1,4,1,4,0,-2,2
11507628,-6,-1,3,-7,-2,0,13,1
11522623,-4,-2,-24,2,-3,-2,-9,-10
11522623,9,10,2,-5,-3,-2,3,-5
11529633,5,-11,-9,2,-1,0,-6,5
11529633,-15,5,12,1,-1,-2,5,-7
11543624,-2,2,-3,-4,2,-1,-16,-8
11543624,14,-11,2,-5,-4,-2,6,-3
11551671,-17,-4,-9,-2,0,0,-6,6
11551671,9,7,13,-1,0,0,-10,-3
11567663,-5,-5,3,0,-3,0,-6,-2
11567663,1,11,1,2,-3,-3,-10,1
11567663,7,0,-3,-1,-2,1,9,1
11567663,4,-4,-10,-2,-1,-3,-2,0
11583137,1,0,15,1,1,-1,0,5
11583137,-18,6,-29,-3,-1,-1,-2,-9
11588643,6,-5,-7,2,0,0,2,3
11588643,-1,-3,1,2,0,4,2,10
11603939,2,-3,-8,-10,-8,-2,2,-5
11603939,-14,-14,5,-3,-1,-2,7,-2
11610651,3,0,-8,2,-2,-5,-1,-19
11610651,11,16,-4,-1,2,1,7,26
11627664,-4,-8,6,2,-1,-2,-8,6
11627664,4,-3,8,1,-2,-3,0,-2
11627664,-7,-4,-13,1,0,-1,1,-10
11627664,-7,-8,15,-8,-5,-3,-5,-8
11642666,-7,-1,2,1,-2,-1,-3,-6
11642666,0,5,14,1,-1,1,4,-1
11649667,3,-3,-6,-2,-2,0,0,4
11649667,-4,-5,2,-3,-2,-1,1,-10
11663948,-6,0,-4,-4,-2,0,2,3
11663948,9,-4,-5,-1,-3,-1,-1,-4
11671439,1,0,-3,0,-4,-3,4,7
11671439,-3,-4,-4,-5,-1,-3,-3,-4
11687069,-8,-1,5,1,1,-1,1,-6
11687069,10,-2,1,5,-3,0,-10,3
11687734,-4,6,11,-1,7,2,19,-2
11687734,-12,-3,2,-7,-6,-3,-9,-11
11702734,18,0,-9,-10,-4,-3,8,7
11702734,-1,3,7,20,6,-2,-8,-2
11708771,0,-8,-3,-8,-6,-3,0,3
11708771,-2,-1,1,-9,0,-1,-7,-5
11724032,-15,-4,-16,-8,-3,0,-11,-13
11724032,1,8,8,7,2,-1,5,1
11731735,1,4,3,5,-2,1,-10,-2
11731735,-4,-16,2,-1,-3,-2,9,-3
11747736,-4,-5,-31,-6,-6,-4,-17,0
11747736,2,6,5,-4,-1,3,26,1
11747736,-2,-5,-1,-1,-1,-3,-7,1
11747736,1,-4,-17,1,-2,-4,-5,1
11762737,-11,1,20,-1,2,1,-2,-1
11762737,-4,-3,0,0,2,-1,3,-4
11769068,1,6,-5,1,-2,-2,-24,4
11769068,10,0,5,-2,-1,-1,44,6
11783078,-15,-2,-5,1,0,-1,-5,-7
11783078,-17,-12,-5,-5,-1,-3,-15,-8
11790587,-6,-2,4,1,-3,0,-1,2
11790587,9,-2,-9,0,-1,0,-10,-3
11807660,0,4,4,1,-3,-4,0,-1
11807660,2,-11,-1,2,0,0,-1,2
11807660,1,0,-11,-7,-1,0,-1,-3
11807660,-1,8,-5,-4,-1,-1,-10,-7
11823589,10,-16,-4,-6,0,-1,12,3
11823589,0,3,0,-8,-5,-3,-9,1
11827595,4,1,8,14,5,1,0,-2
11827595,-3,2,1,5,-1,0,-6,0
11844658,-2,3,0,-2,-3,-1,5,-1
11844658,2,1,-6,-9,-4,-1,1,-2
11851660,2,-12,0,-4,-2,-2,0,-3
11851660,1,6,-14,-12,0,-2,-7,3
11867655,-3,-6,2,5,3,0,-7,1
11867655,15,3,8,-4,-3,-3,-23,7
11867655,9,13,-23,-1,-3,-2,26,1
11867655,-4,-24,2,1,-1,0,-5,-3
11883100,-5,6,6,0,0,-1,0,3
11883100,2,1,-5,1,-2,0,25,2
11888896,-12,0,-2,-2,-1,-3,-13,-1
11888896,8,-2,0,0,0,0,-2,-3
11903892,1,1,-3,1,1,-2,-6,-2
11903892,-10,2,-1,-2,-2,-1,-6,-2
11910898,-1,-3,5,1,-2,-1,0,-3
11910898,-8,-6,-9,-4,-2,-2,3,-4
11926893,1,-3,0,2,-1,0,1,-1
11926893,-3,5,-6,-3,-1,-3,-3,-2
11927893,4,1,1,-3,0,-1,-1,-1
11927893,-10,2,7,5,-2,0,-3,0
11950892,11,0,9,0,-1,0,-4,-9
11950892,7,-2,-19,-2,-3,-1,-1,-2
11951903,-9,14,7,-2,0,-1,-6,3
11951903,-12,-13,8,1,-2,-2,-6,-5
11963898,-2,-6,-6,-1,0,-1,11,1
11963898,1,-3,5,-1,1,0,-7,0
11971110,1,-2,-1,1,0,-1,-8,-2
11971110,-5,7,-2,-1,-1,-2,0,2
11986626,3,2,-6,-8,-2,-2,-7,-5
11986626,12,0,3,9,4,2,-1,7
11987619,-2,-12,-5,-6,-3,-1,-13,6
11987619,11,-4,-2,0,1,0,13,0
12003619,-9,2,-5,1,-1,-2,-7,0
12003619,-4,0,4,-6,-6,-5,-9,-5
12008625,-10,6,0,-1,-1,-1,-1,-1
12008625,3,-3,1,-4,-2,-2,-4,-1
12024620,4,2,5,2,0,1,1,0
12024620,13,-12,-19,-8,-1,0,6,-4
12031620,-15,-4,-2,0,-2,-3,7,-1
12031620,-10,10,13,2,-3,-3,-10,-1
12047621,8,-12,-11,4,-1,-1,2,-1
12047621,-17,11,14,-8,0,-1,-3,-2
12048621,6,-11,0,-1,1,2,4,-3
12048621,1,3,-1,-2,-3,-4,-9,-8
12062655,-11,-1,3,1,-1,1,1,1
12062655,-7,-4,-1,0,1,0,3,2
12077419,16,3,-2,-5,-4,-4,2,-5
12077419,-19,-15,5,0,-4,0,-4,2
12084420,2,2,-6,-2,-3,-2,-17,2
12084420,-7,0,5,3,0,3,30,-12
12091653,-4,-7,-8,-4,-1,-1,0,2
12091653,23,7,0,1,2,-1,-3,1
12107428,-4,0,-1,-2,-3,-3,-4,-2
12107428,-10,-3,-5,5,-2,-5,-23,-5
12108429,0,-2,11,-6,0,0,3,-1
12108429,-3,-1,-6,1,0,1,0,-2
12123430,2,17,21,-2,0,-1,6,2
12123430,0,-15,-18,-2,-2,-2,-8,-2
12129651,-1,-12,1,-5,-5,-4,3,1
12129651,-4,6,9,0,-1,-2,-3,-3
12144680,2,-5,-26,-3,1,2,2,2
12144680,3,2,7,0,0,0,4,0
12151684,0,-10,-6,-2,-1,-1,4,1
12151684,-2,9,-6,0,0,-2,0,-3
12167682,0,-2,7,-1,-3,-1,0,-1
12167682,-2,-5,2,-3,-1,-1,4,4
12167682,-1,15,-3,3,-1,-1,-16,-11
12167682,3,-19,-21,-6,-1,-1,8,-2
12183442,13,3,4,2,-1,0,-12,0
12183442,-16,-4,-10,-6,-5,-1,39,3
12189449,4,-4,-2,0,1,0,-11,-4
12189449,4,19,18,1,-1,0,-2,4
12204449,4,-3,-11,-2,-1,-3,-6,-3
12204449,3,-5,3,-1,-3,-2,-26,-4
12211450,-2,0,3,2,-2,-3,6,-2
12211450,0,-4,-13,-2,-3,-1,4,-6
12227648,-12,-12,0,-4,-2,-1,4,2
12227648,10,11,8,3,3,1,-2,-1
12228450,-18,-8,-4,0,-1,1,20,-1
12228450,-2,3,-5,6,2,-2,-14,-3
12242644,-9,-9,-1,-2,0,0,8,-4
12242644,4,-5,2,-3,0,-3,-6,-3
12249647,5,1,-6,-1,-5,-2,-10,-4
12249647,6,7,-1,-1,2,-1,9,3
12264674,-9,-5,-2,-1,-1,-1,-3,-3
12264674,-7,-1,-2,0,-3,-4,-14,-3
12271282,9,4,3,-1,0,-2,-4,1
12271282,-23,4,15,-2,-4,-1,4,0
12285771,0,-8,-28,-6,-2,-3,3,-3
12285771,-10,3,14,-1,0,2,-11,0
12293766,17,-10,1,0,-1,-2,-12,0
12293766,0,1,-4,-1,0,0,23,2
12302766,18,4,17,-3,0,0,0,-1
12302766,-13,-6,-12,4,0,-3,-7,-10
12308772,-15,6,-4,-1,2,-1,-2,8
12308772,-1,-5,2,-4,-3,-1,-13,-2
12324766,4,4,-5,-2,-3,-1,-1,0
12324766,1,2,-7,-5,-4,-4,-3,-4
12331047,1,-11,8,1,0,0,7,0
12331047,-3,-9,-10,-4,-1,-2,-16,3
12346767,-14,-5,-5,-1,-2,-1,-7,-3
12346767,3,13,8,1,0,0,5,4
12353996,-4,1,1,0,-2,0,-6,-7
12353996,-1,-7,-7,-1,-3,-3,-2,-2
12362768,-5,0,4,-8,-2,-3,-1,-2
12362768,0,-10,-8,5,2,1,-2,-1
12369644,-2,-3,-8,-3,-4,-2,5,0
12369644,6,5,0,-1,0,0,4,-1
12384565,4,5,-4,0,-1,-3,-4,-3
12384565,-12,-10,-5,-5,-2,3,4,2
12390572,-3,0,0,-1,0,-1,-4,8
12390572,5,-2,5,3,-2,-1,-6,-2
12405574,3,-2,0,-3,0,-2,4,-2
12405574,-9,17,-13,2,-4,-2,-1,0
12413574,-14,-18,6,0,1,-1,-5,-9
12413574,-26,-11,-4,-6,-3,-1,-11,1
12422575,0,-6,-3,-19,-1,-2,9,6
12422575,15,3,4,23,-4,-2,-4,3
12428861,3,14,2,-3,2,-4,-8,-9
12428861,-2,-2,-1,5,5,-3,-17,5
12444641,10,-2,3,2,-6,-2,21,-18
12444641,-5,2,-1,-17,-4,-1,-5,2
12451609,-1,-12,-4,0,-6,-1,-6,-3
12451609,14,-8,0,-4,3,-3,-4,-7
12466641,-7,2,-8,7,-5,0,-17,6
12466641,9,1,-1,-17,-7,-5,-17,18
12474368,-26,3,20,14,22,7,37,-7
12474368,-4,-2,-3,-10,-4,-1,-5,-11
12488888,-5,-5,5,3,1,0,7,8
12488888,3,-16,-13,-1,-5,-3,-22,-9
12489886,9,1,-17,-5,-11,-3,5,11
12489886,-5,25,13,-3,3,0,6,0
12505887,3,2,9,16,3,2,-10,5
12505887,-13,-5,30,-22,3,-1,29,-1
12510886,21,-2,-55,6,-1,-4,4,-7
12510886,2,-5,-11,5,-4,-1,-1,-7
12526116,6,1,1,-1,-3,-4,-4,0
12526116,-5,2,4,-5,5,3,15,7
12534147,8,9,12,1,-5,-3,-12,-6
12534147,-8,-24,-8,-5,-8,-4,-5,9
12549104,-10,2,-3,-5,4,0,8,-6
12549104,2,-5,-5,9,-1,-1,19,1
12549887,-4,6,7,-5,0,-2,-5,-20
12549887,19,-9,-5,0,-1,1,5,14
12564888,-3,-21,-3,-8,-3,-6,-16,-6
12564888,-31,6,-4,7,0,-3,12,-12
12571612,29,2,4,-4,-4,0,-19,6
12571612,-6,16,-1,-3,0,-2,-2,-9
12586179,0,-4,6,0,-1,0,0,-2
12586179,-7,-7,-1,-2,-1,1,8,-6
12594139,-46,0,-11,-8,-4,-1,-6,0
12594139,-1,3,17,2,-1,-4,-8,-5
12609181,-11,8,-10,0,2,1,1,-4
12609181,24,4,1,1,-2,-3,-26,-1
12610139,-17,-6,-9,-2,-1,1,13,5
12610139,1,-25,26,13,1,3,5,1
12632505,-6,10,-23,-11,-4,-3,-7,-10
12632505,7,-4,5,-2,0,-3,-18,-7
12633140,-4,15,9,-3,0,0,22,-10
12633140,8,5,3,-1,-1,-4,-6,7
12646473,11,-8,-14,-1,-1,0,4,16
12646473,1,-7,-15,-4,-3,-4,-8,-6
12654141,21,10,46,14,4,1,-12,10
12654141,-14,-5,-61,-22,-7,-1,6,-11
12669477,-7,-1,7,0,-3,-2,-1,-3
12669477,4,-3,-8,-1,3,2,-1,-5
12670983,-10,-11,-3,-2,-6,-2,-8,-2
12670983,1,2,5,2,0,3,4,-7
12684985,-11,1,1,-1,0,-2,1,-1
12684985,8,-1,-2,-1,1,-1,-15,-8
12690993,-5,-11,-3,-4,-4,-3,22,-1
12690993,13,4,0,-1,2,2,26,6
12705994,0,3,4,5,-3,-2,-5,-2
12705994,-3,-2,14,-1,-1,-6,-12,-5
12714028,1,-6,-6,-1,2,-3,-8,3
12714028,0,3,-6,-3,-5,-2,9,3
12728998,3,7,0,-2,-5,0,3,0
12728998,2,-8,0,-4,2,0,1,5
12730028,23,0,2,12,4,-2,-7,-1
12730028,-7,6,0,3,-1,-2,-7,-5
12745286,2,12,6,-18,-1,0,-1,1
12745286,-9,-27,-8,4,-2,-5,-15,-3
12751255,-5,-9,-10,-11,-3,1,-2,-6
12751255,-6,7,19,4,0,-2,-16,2
12766257,7,6,6,3,-4,-1,-1,7
12766257,1,5,-23,-3,-4,2,13,6
12774478,-6,-19,-4,-1,-1,-1,0,1
12774478,-7,-13,-11,-10,-6,-5,-24,-14
12789223,-6,1,9,5,2,0,13,-4
12789223,-1,8,6,3,0,1,12,6
12790486,-1,-2,-1,-4,-2,0,-4,-3
12790486,9,5,-6,-5,-4,-3,-7,-1
12805223,-6,1,0,3,3,-2,-5,-7
12805223,-9,-16,-2,3,0,1,-1,-2
12811235,2,1,2,-6,-4,-4,-1,5
12811235,-7,-14,-10,-4,-1,-1,-11,-5
12826373,4,6,-2,4,1,1,19,-1
12826373,-1,-2,-5,0,-2,0,5,-1
12834527,-3,10,7,-10,-4,-3,-14,3
12834527,-2,0,-23,2,2,-2,7,4
12849226,2,-12,4,-1,-1,0,-6,0
12849226,-4,15,-7,-6,-1,-3,-3,0
12850261,0,-17,-14,-1,-1,0,-12,-1
12850261,-3,5,40,7,5,3,19,-3
12865262,6,-1,1,2,-2,-4,-11,-1
12865262,-5,8,12,-2,-3,-2,-3,0
12871271,2,-7,-27,-4,-2,-2,-2,-2
12871271,2,2,4,0,-3,-2,-5,-5
12886288,-11,-10,6,-1,0,-3,-20,1
12886288,9,-2,-6,-1,-2,-1,32,12
12894248,5,16,8,1,-1,-4,-17,-16
12894248,-4,-6,-10,-8,1,1,19,8
12909284,-1,-3,-1,3,1,-1,-21,-2
12909284,3,-3,-4,-1,0,0,23,0
12910249,1,3,2,0,-2,2,4,7
12910249,2,1,-5,1,-1,-3,-2,-6
12925285,-3,-7,-4,0,1,0,-5,0
12925285,-19,-3,3,-2,-3,-4,-18,-9
12931285,-2,3,-3,-4,-2,0,-10,-1
12931285,-2,-13,0,0,-1,-2,7,-2
12946317,-9,-5,-12,-4,-3,-2,0,-2
12946317,8,1,15,3,-1,-2,-15,-5
12954287,0,18,9,-1,0,-3,0,2
12954287,7,5,0,0,1,1,-7,5
12969292,3,4,3,1,-1,-3,3,-2
12969292,0,-3,-8,1,-3,1,-3,-3
12970301,-11,-12,6,-5,-2,-1,-1,0
12970301,4,7,-11,0,0,0,-2,5
12985303,-8,-5,-7,-4,-4,-4,20,-11
12985303,2,11,17,2,1,-1,-11,-6
12991309,-9,-12,-14,-2,-2,-1,6,2
12991309,1,-6,4,-6,-3,0,16,0
13006567,-3,2,1,4,1,-2,-13,-2
13006567,3,-6,1,-1,-2,-3,-3,-2
13014561,-5,-13,-24,-6,-4,-4,-4,3
13014561,-8,1,-2,2,-1,-2,-6,-3
13029535,-2,-1,-1,-2,-2,-2,-7,-2
13029535,-11,3,-4,-2,1,-1,-3,-4
13030561,24,7,6,-1,-5,-1,6,3
13030561,-9,0,1,-2,-2,-3,-11,-5
13045530,-1,1,-4,-2,1,0,3,0
13045530,-3,-3,-6,-1,0,2,1,3
13059527,0,-7,1,1,2,0,-4,-1
13059527,12,10,-3,-1,-2,-2,-2,1
13066560,-5,-12,-3,-2,-2,0,3,-1
13066560,17,3,-8,-5,-3,-2,-3,-9
13074560,-6,11,13,2,1,0,-4,-7
13074560,3,-27,0,3,-2,1,3,-2
13089528,-18,7,0,-9,-2,-2,-2,-4
13089528,-8,-18,-9,-2,-2,-2,3,0
13089528,5,5,18,9,2,-1,4,-5
13089528,-2,27,-17,-4,-1,0,-24,0
13105529,5,-11,7,-3,-2,-2,-18,-1
13105529,-1,-4,-4,5,-1,-3,2,1
13111558,-5,3,0,-7,-1,0,10,0
13111558,-9,-5,4,2,-2,0,-12,-3
13126546,4,0,-7,0,-5,0,22,0
13126546,10,8,0,-3,1,1,-17,6
13134574,-20,-9,-4,0,-3,-3,-3,-2
13134574,1,-3,-1,-2,-4,-2,4,-1
13148815,1,1,-7,0,1,0,1,6
13148815,-3,-3,1,0,0,-1,4,-11
13155532,0,3,4,-1,0,0,-5,-5
13155532,0,-7,6,-3,-1,-3,-1,-5
13164616,-21,-18,-10,-6,-3,-3,1,-1
13164616,16,21,9,1,1,1,6,3
13172324,-1,3,-6,-3,-2,-2,2,4
13172324,0,3,1,-2,-2,-4,-6,-5
13185827,2,-23,16,2,0,2,-5,-2
13185827,-10,-1,-23,-4,-4,-1,3,0
13193835,2,6,-5,-4,-1,0,1,-3
13193835,-2,5,10,7,2,-3,-2,-1
13208837,2,0,-3,-2,-1,-3,-3,-4
13208837,-2,-15,0,-5,0,-3,-31,-1
13209836,1,0,-6,2,-2,-2,15,1
13209836,-2,-3,-5,-9,-3,-1,8,5
13224836,15,15,1,1,2,-3,-11,-5
13224836,-12,-13,-5,-2,-6,-2,2,4
13230842,0,-2,-2,-2,1,0,-6,-2
13230842,-2,-2,-2,2,-2,-3,-1,-2
13245837,18,1,-8,-1,-2,1,3,2
13245837,0,4,6,-5,-6,-3,1,-2
13253938,3,0,-1,-1,0,-2,-11,0
13253938,-3,-2,-6,-2,-1,3,3,-4
13269082,-5,6,4,1,2,1,3,1
13269082,3,-11,7,-1,0,-3,5,-1
13276290,-1,3,-5,-5,-1,-1,-2,1
13276290,-4,-4,-8,-5,1,-2,-8,-6
13285266,-8,-7,8,1,-3,-4,-3,-3
13285266,-17,-2,-4,0,1,-1,12,1
13290748,14,1,4,-1,-3,-2,-16,-2
13290748,-5,4,-7,0,-4,-1,10,-2
13306555,1,-2,-12,-3,-1,1,-9,7
13306555,2,13,9,-1,0,-1,20,2
13313561,-3,-18,-7,-1,-4,-1,3,-1
13313561,-4,-8,-3,-6,2,-3,-8,-1
13328554,-2,-2,-1,13,3,-4,-2,-4
13328554,-5,3,-5,1,-2,-1,-2,-2
13335555,11,-3,-4,-2,-3,-1,3,1
13335555,-29,-3,-3,-4,-7,-3,5,1
13344555,-6,5,2,-3,1,-1,-7,-4
13344555,1,-2,2,-1,3,1,8,0
13350757,-3,4,-2,3,-1,-3,-2,0
13350757,6,-4,-2,-3,-3,-4,-8,-13
13366566,2,-7,-8,-5,-1,1,12,5
13366566,11,8,0,1,-2,-2,-6,-4
13374502,-10,-2,2,-3,2,2,-5,-1
13374502,-4,-16,-2,2,1,0,16,0
13388795,-4,-6,-7,-6,-2,0,10,-1
13388795,6,-3,-6,-1,-1,-2,-4,-1
13395796,-8,7,4,-1,-2,-1,-1,-7
13395796,-11,4,12,-1,0,-1,-15,2
13404796,12,-1,-27,2,-1,-1,3,-5
13404796,0,5,0,-4,-4,-2,2,2
13410802,-2,-7,8,-2,-2,-3,-14,-3
13410802,-4,-7,-6,1,0,-4,3,1
13426006,-2,8,8,-3,-1,-2,-4,1
13426006,-7,-9,-1,2,0,-3,-6,0
13434056,-8,0,-10,-4,0,1,2,0
13434056,20,5,5,0,-3,0,-2,-6
13449060,-21,-4,6,-5,-3,-3,-5,1
13449060,-7,1,-4,0,0,-1,-6,-3
13456007,0,0,-2,0,-1,-2,2,0
13456007,4,2,-6,3,1,-1,3,4
13473020,4,-6,-2,-13,-5,-3,-3,-2
13473020,-18,-11,1,3,-5,-2,-6,-3
13474020,-1,-2,1,-13,0,-1,4,-2
13474020,-2,6,3,13,5,-2,-12,6
13485813,-6,14,-1,1,-2,0,7,-2
13485813,8,-4,0,-4,0,4,12,4
13493857,-6,-8,13,-2,-2,-4,8,-3
13493857,4,0,-25,-7,-3,2,-9,2
13508857,-6,-12,7,-1,2,-1,-8,-10
13508857,-5,0,-6,0,-4,-2,-15,-8
13516103,6,12,2,7,1,1,10,2
13516103,-6,-9,4,-5,-3,-3,13,-3
13531828,0,5,0,4,-3,-1,5,-2
13531828,11,-5,-3,-6,1,-2,-18,-1
13532822,-3,1,-10,-2,-2,-3,-10,-11
13532822,-2,0,4,-2,0,-1,-4,-4
13545829,2,-2,1,1,0,1,0,3
13545829,2,1,5,5,2,-3,-1,0
13554031,-1,-7,-6,0,-3,-1,-2,6
13554031,-13,0,-3,-2,-4,-3,-5,-6
13569155,4,2,5,1,-2,-1,5,2
13569155,0,-7,-7,-4,-3,-4,-6,-1
13576622,-8,-7,-2,1,0,-1,25,1
13576622,3,11,8,-5,-2,-1,-1,1
13592175,12,2,-7,-2,-2,-2,-8,1
13592175,0,-2,2,1,1,1,-10,-5
13592845,-9,-4,-22,-2,-4,-1,1,0
13592845,-2,-14,5,4,2,0,5,-5
13605846,-8,-4,-1,-2,-2,-1,-7,-2
13605846,5,1,-5,1,-4,-1,13,1
13613887,8,2,3,-4,-1,-2,-12,-6
13613887,4,11,-3,-1,1,0,-1,1
13628853,-17,-6,-5,-4,-5,-4,-12,3
13628853,5,-1,0,-1,-1,1,23,-2
13635848,-7,-9,-5,-5,-3,-1,-15,0
13635848,4,6,11,-2,3,-1,-1,-1
13651888,1,-5,1,1,1,0,6,-2
13651888,-1,8,-1,-4,-1,0,-13,2
13652847,-27,-4,10,-1,-2,-1,28,-6
13652847,-6,-2,-29,-6,-2,1,-6,7
13667848,0,-3,2,1,0,-2,-9,-7
13667848,3,3,-1,-4,0,-2,-1,-2
13674365,-15,-6,-5,4,3,1,-10,-2
13674365,11,-10,9,-2,-4,-4,-5,-2
13688881,-1,11,0,-3,1,0,-7,-7
13688881,-9,-12,-6,-1,-3,-2,7,0
13695885,10,9,-2,-3,0,-3,-6,-1
13695885,-6,-13,3,-5,-4,0,5,-2
13711921,2,-2,-21,0,1,-2,-2,2
13711921,-2,3,1,2,1,-2,-8,2
13713112,13,15,17,5,1,4,-8,-2
13713112,-7,-1,-9,-9,-8,-3,0,-2
13727881,5,-9,8,-1,-1,-1,-4,-2
13727881,-15,-8,-9,-2,2,1,-2,-3
13734180,6,-12,-7,-1,1,-2,-1,2
13734180,6,13,3,7,-1,1,-2,0
13749175,-18,-8,1,-10,-1,-1,3,0
13749175,3,6,-1,0,-3,-3,-11,-2
13756113,6,5,-3,-2,-2,-4,6,1
13756113,-7,-8,3,0,0,1,-4,8
13772105,-10,-3,0,0,-4,-2,-7,-7
13772105,5,-6,-5,-3,-2,0,29,4
13773104,8,3,-1,0,-2,-2,-11,-1
13773104,-2,5,0,0,1,-2,-9,2
13788119,0,1,1,2,0,2,35,0
13788119,-4,3,5,-4,-2,-2,-9,0
13794485,-5,-10,-7,2,-1,-1,-7,-1
13794485,1,-1,-3,-4,-3,-2,-5,-4
13809149,2,5,2,-1,0,-4,-17,-5
13809149,8,2,1,-3,0,-1,0,-2
13816388,14,0,-5,-2,-1,-2,-2,-2
13816388,-5,-5,-1,1,-3,-3,8,-9
13832417,13,-12,-3,-9,-2,-1,-20,-1
13832417,-23,12,5,3,-1,-2,13,0
13833387,-10,-20,4,-4,2,0,-8,2
13833387,2,7,-6,0,0,0,-4,-7
13848363,6,-11,-3,-2,-5,-2,-5,3
13848363,-11,1,-5,1,-2,-2,-5,-4
13854123,18,8,1,-1,-1,1,3,0
13854123,4,3,31,0,-1,-2,3,9
13869125,-14,9,-25,2,-1,1,-1,-4
13869125,0,-18,-2,-3,-1,-2,-22,-10
13876524,-11,-13,-7,2,-4,-3,17,3
13876524,19,7,-2,-8,1,0,-3,-1
13892036,-9,3,6,3,0,0,-1,1
13892036,1,4,0,-3,0,-2,0,-2
13893036,-7,3,0,-1,-2,-1,-20,-6
13893036,2,-5,-9,-1,-3,-2,3,-3
13908072,3,5,4,1,-1,1,14,0
13908072,-19,-6,-2,-3,1,1,-20,-9
13914038,-1,9,11,0,0,4,34,6
13914038,-2,-3,-10,2,-2,1,7,-5
13929108,-18,-8,0,-8,-1,-5,-7,0
13929108,-14,-10,3,-2,-1,-3,-14,-7
13936286,11,-9,-10,-2,-3,0,-2,6
13936286,-6,2,5,-2,-3,-5,-1,1
13952318,8,6,0,1,1,1,12,-6
13952318,11,1,-4,-1,-2,0,-6,1
13953287,-13,4,-15,-1,1,-3,-11,0
13953287,6,-7,0,-1,-2,0,17,0
13968288,1,-2,-5,1,-3,-2,-24,1
13968288,3,6,7,-3,-2,-2,6,0
13974244,8,-7,-2,-3,-3,-3,-18,-6
13974244,-11,-9,-8,-1,0,-3,8,0
13988948,9,11,4,1,-1,-2,8,3
13988948,-7,-4,4,1,-3,-1,3,-2
13995950,-9,-6,-8,-6,-2,-1,0,-7
13995950,0,-6,1,2,1,0,-13,-3
14012229,17,8,2,0,-1,-1,29,5
14012229,5,10,-5,-2,-1,-2,-11,-5
14013201,-10,-4,-4,-2,-4,-4,4,-5
14013201,-14,-16,-6,1,0,0,-10,-1
14028170,-10,-14,-1,-4,-4,-3,-7,-3
14028170,11,2,-5,1,-2,-2,4,7
14034233,-5,7,3,-5,1,0,2,-6
14034233,13,-1,6,-1,0,1,-12,-5
14049318,-12,6,-1,-1,-2,0,16,-2
14049318,1,-17,-2,-2,-4,-1,13,4
14055955,-8,12,15,2,-2,-4,-15,1
14055955,-13,-2,-28,-2,0,-1,-1,1
14071980,33,4,9,1,0,-1,-9,-7
14071980,1,-11,-15,-2,-1,0,5,2
14072980,-21,-2,4,1,-2,-1,-8,-9
14072980,-2,1,6,-2,-2,-2,-8,-4
14087772,-9,1,-4,0,-1,-1,12,2
14087772,32,10,6,1,-1,-1,-3,1
14101814,-15,7,0,0,0,0,-1,4
14101814,-4,-11,-5,-5,-2,-2,1,-3
14108812,-9,-1,-1,4,-1,-4,-11,-4
14108812,20,-4,0,-1,-1,-2,-5,-2
14116058,-10,-7,-5,-3,-2,-2,-8,2
14116058,-7,11,6,1,-1,0,-5,-3
14132079,8,-4,-4,-2,-1,-1,-9,7
14132079,-16,-1,-5,-3,1,-2,-1,3
14132774,19,2,0,-2,-6,-1,-5,-4
14132774,-9,-2,1,0,-1,-3,2,3
14147800,-6,-1,-6,-1,0,1,-7,-1
14147800,-19,-2,0,0,-2,-3,-11,-9
14154026,-2,-1,7,-3,-2,-3,8,6
14154026,15,11,-9,-1,-2,0,27,1
14169777,-4,-14,-1,-1,-3,-5,-12,-4
14169777,-11,7,11,1,3,6,0,2
14176552,8,0,-12,1,-1,0,8,-1
14176552,8,-3,-5,0,-1,-2,-8,-5
14191187,12,-15,9,-8,-2,-2,-7,2
14191187,-3,8,1,2,0,-3,7,-14
14199214,15,0,-6,-3,-3,-4,-1,0
14199214,-10,7,5,0,-1,-1,-2,3
14208147,2,0,-3,-2,-3,0,2,-4
14208147,7,-1,-4,-4,-4,-1,20,4
14214171,9,3,1,1,2,0,-1,-3
14214171,8,-9,-2,-3,-1,-4,-10,-3
14229512,-17,11,4,1,0,2,6,-8
14229512,0,-11,-6,-4,-3,-2,-14,-7
14236481,-9,-13,-3,3,-1,1,28,-2
14236481,-3,1,-1,-1,-1,0,-9,-1
14251184,-5,-6,-1,2,-1,-3,-8,-3
14251184,-5,5,-3,1,-4,-3,3,5
14259185,-7,12,4,0,4,0,-12,-4
14259185,14,-10,2,0,-1,3,0,0
14268150,-15,-10,-2,-5,-2,-1,2,2
14268150,-4,-2,-9,0,-1,0,-3,0
14274208,-2,1,9,-2,-1,-2,-6,-3
14274208,7,5,-20,-4,-1,-3,-2,-6
14288685,-23,15,1,3,3,1,1,3
14288685,-2,-24,1,-3,-5,-3,-8,-1
14295690,14,-7,-4,0,-4,-2,2,1
14295690,-7,9,0,-2,-1,-5,-15,-3
14310685,3,-9,3,-6,-1,1,26,0
14310685,-7,-3,4,-1,-1,-2,-2,0
14318945,0,4,-5,-2,-3,-3,-15,-3
14318945,-11,-10,6,3,-2,-1,0,-4
14327684,3,2,-7,-1,-3,-4,-22,-1
14327684,-11,4,1,-3,-1,2,30,1
14333946,11,0,-8,-3,-2,-2,-9,0
14333946,-2,4,-3,1,0,-3,-2,0
14349686,4,-11,4,1,-2,1,-1,2
14349686,-20,3,-1,0,-1,-3,-10,-3
14356687,-9,-16,-11,-10,-1,-3,-7,-1
14356687,6,3,0,2,1,0,11,-1
14370980,10,2,4,3,2,1,8,0
14370980,-9,15,26,0,1,-2,-12,-8
14379281,9,-9,-9,0,0,0,2,-5
14379281,-9,6,14,-3,-2,-3,-12,-1
14394004,7,-15,-32,-2,-4,-3,3,1
14394004,0,0,-7,0,-1,-1,2,5
14394997,-6,8,6,1,-2,-1,-4,-2
14394997,-2,-12,7,0,-4,-3,-11,-1
14409039,-14,4,-10,1,2,-1,-8,-6
14409039,13,10,-10,-5,-2,0,-1,3
14416334,-9,-17,2,1,0,-2,0,-2
14416334,5,7,-3,-3,-2,-2,-9,-1
14431006,0,-10,3,-3,-2,-2,-2,2
14431006,-3,-10,-1,-3,-3,-2,-7,-5
14439000,-8,3,-2,1,-1,-1,-1,0
14439000,-5,3,-2,-2,-3,-1,6,-7
14454001,7,12,4,-1,-2,-4,-4,-2
14454001,4,-20,-7,2,0,2,-3,3
14455001,21,22,-5,-6,-2,-2,-7,-4
14455001,0,-25,2,1,2,1,19,6
14469367,4,3,3,4,1,-1,-7,-4
14469367,-3,-7,-10,-2,0,0,7,0
14476303,-7,0,9,1,-1,-2,-2,-7
14476303,-1,10,-13,-3,-1,-1,-3,2
14491305,-5,-17,1,-2,-1,-3,-15,-2
14491305,9,6,-2,0,0,2,26,3
14499305,-3,-5,0,0,-2,-3,-13,5
14499305,2,9,2,2,2,0,16,-1
14514306,7,-3,0,-1,-6,-4,1,1
14514306,-9,-3,-1,-2,4,0,-12,2
14515305,0,-2,-3,-1,-4,1,3,1
14515305,8,-5,-3,-5,-1,1,-2,2
14529607,-30,21,0,0,-4,-3,-1,1
14529607,3,-1,8,-2,1,-1,-8,-6
14536572,-4,-10,-24,-4,-3,-3,0,-3
14536572,-11,-15,12,1,-2,-2,-9,0
14551308,14,3,-4,3,0,-1,3,1
14551308,-2,-1,8,-11,-1,-4,8,-2
14559602,3,9,4,3,-1,-2,-13,3
14559602,-20,-2,-1,0,-1,0,3,0
14574330,2,3,-2,-5,0,1,-3,-2
14574330,-4,-1,0,2,-4,-3,-26,-2
14575329,2,-1,3,-1,0,1,27,4
14575329,-5,1,-8,-2,-1,-3,1,-6
14589347,-2,-4,1,-2,-1,-2,4,-1
14589347,17,1,-8,0,-4,-2,-23,-2
14596347,-8,-19,-2,-1,-2,-2,-7,-8
14596347,5,6,-4,-1,-1,-1,-1,-2
14611348,-4,-12,-1,2,0,-1,7,2
14611348,2,19,-1,-6,-1,-2,8,0
14619349,30,-12,-1,-3,-4,-2,-4,-4
14619349,-11,-13,-2,0,-1,1,4,-2
14634571,6,8,0,-1,-1,-2,-14,-2
14634571,-1,-15,-7,1,-1,3,13,-3
14635349,-5,7,2,2,-1,-1,-2,2
14635349,8,6,1,-5,0,-3,-14,3
14649526,-5,-6,-16,-4,-4,-2,-2,-5
14649526,-1,0,-6,0,-1,-1,-6,0
14656462,-13,2,5,-3,1,0,5,-1
14656462,9,-7,-1,5,0,1,-3,-2
14672071,-9,4,2,-8,0,1,-3,-2
14672071,-4,-9,2,2,-3,-4,10,1
14679572,-4,-6,-6,-1,-1,0,-13,-7
14679572,-7,12,4,0,-4,-3,16,6
