timestamp,emg1,emg2,emg3,emg4,emg5,emg6,emg7,emg8
178244,-2,-1,-10,-10,-4,-2,-1,-2
178244,2,-2,3,11,7,2,0,-2
179245,1,2,-6,-7,7,4,-1,-1
179245,-3,-2,-3,-23,-20,-3,0,1
182245,-1,-1,12,40,8,-1,-2,-1
182245,-5,-10,-24,-17,4,-3,-5,-2
183460,1,0,-5,-10,-7,1,0,0
183460,-1,-1,-8,12,8,0,-1,0
188489,0,2,2,-29,-17,-1,-3,1
188489,-2,5,33,51,10,-1,1,0
197245,-3,-5,-13,-24,17,0,-2,-1
197245,-2,-4,-12,-10,-6,-3,-1,-4
203286,-1,-2,-4,-11,-2,-2,-2,-3
203286,0,2,9,6,-12,-1,-2,1
218251,0,0,11,10,1,-3,0,0
218251,-2,0,8,1,1,-2,-2,-2
227282,0,-2,2,-2,-5,-3,0,0
227282,-1,-1,-9,-11,-3,3,0,-2
241767,-3,0,9,30,-3,-4,-1,-3
241767,0,-1,-18,-29,1,0,1,-1
249763,-2,-1,-1,9,4,0,0,0
249763,-3,0,-11,-23,-6,-5,-3,-1
256272,-1,1,13,29,2,3,-1,1
256272,-2,-4,-18,-22,-10,-1,-2,-2
304274,-3,-1,-14,-8,-4,-5,-3,-2
304274,-2,0,10,10,3,1,-1,-2
305520,-2,1,-1,-9,-5,-2,-1,-2
305520,0,0,-8,-1,-1,-1,-4,-1
308275,0,-1,4,0,0,0,-1,-3
308275,-1,-4,-13,-8,-4,-2,-1,-1
309275,-8,1,8,8,-2,-1,-1,0
309275,-1,-1,3,-4,-1,-1,0,-3
315469,-1,-1,-6,9,3,0,-2,-2
315469,1,2,0,-8,-3,-1,0,-1
324275,2,2,-10,-4,1,-1,-2,-1
324275,-2,-9,30,4,-5,-3,-1,-3
330546,0,-1,-27,-15,3,-1,-1,-1
330546,-2,0,14,2,-2,-1,-2,-1
346282,-2,-3,-22,-3,-3,-1,-3,-4
346282,-2,2,-1,1,1,-2,-1,0
353288,-1,-2,14,10,-2,1,0,0
353288,-2,-2,-5,-3,-1,0,-3,-1
362289,0,-2,-6,-8,-4,-2,-2,-3
362289,-1,-2,-7,2,0,-1,-2,-2
375290,-2,-1,17,7,-4,-3,-1,-4
375290,-1,0,-22,-4,1,-3,-2,-1
384290,-2,-3,11,4,-4,1,1,-1
384290,-3,-4,-17,16,6,1,0,-3
390291,1,1,-2,-30,-6,1,0,1
390291,-1,-1,-5,-35,-4,0,-1,-2
405292,-4,-3,8,37,5,-3,-4,-3
405292,0,2,11,26,-2,-3,-1,1
413292,0,4,-31,-34,-3,-1,-1,-2
413292,-1,-10,22,21,-6,-2,-2,-2
422292,2,-2,-8,-26,4,1,-1,-2
422292,-1,-1,0,2,0,1,-1,-3
435797,-3,-3,5,4,-1,0,-2,-2
435797,-3,1,4,6,-7,-4,-1,-2
444799,0,1,-2,-7,-1,-1,-1,-2
444799,-1,2,-6,8,-1,0,1,1
451017,-1,-2,-3,5,0,-1,-1,-1
451017,0,1,2,-5,2,-1,-1,-1
465304,0,1,-1,-15,-6,-4,1,0
465304,0,3,6,8,4,1,-1,-3
473519,-2,-5,1,13,1,-1,-2,-1
473519,-2,-2,-5,35,2,0,1,1
482305,1,-2,-30,-71,-6,-1,-1,0
482305,-1,0,10,4,0,-1,-2,1
495506,-2,2,6,2,1,-1,1,-2
495506,0,-1,9,17,2,0,-2,-1
506520,-1,-2,-7,11,-1,-2,-1,-1
506520,0,-4,-9,-23,-4,-1,-3,0
510307,-1,-3,7,14,-1,1,0,0
510307,-1,0,-16,-21,-2,-2,-1,0
525309,-2,-2,21,28,-1,-2,-3,-2
525309,-1,-2,-7,-19,-5,-3,-2,-1
533310,-2,-5,11,5,-2,-2,-2,-4
533310,-1,1,-13,-7,-1,0,1,-1
542818,-2,0,-1,-10,-2,-2,-4,-2
542818,-1,-3,6,15,-2,-1,1,0
555840,-1,-1,-29,-6,0,-1,-1,1
555840,-2,1,1,-15,-10,-2,1,0
564841,0,-2,19,38,9,2,-1,0
564841,-2,0,-14,-53,-7,-4,-1,-3
571039,0,1,-24,9,4,-3,-2,1
571039,-4,-8,2,-9,-7,-1,-2,-3
586008,2,0,6,5,-2,-2,1,0
586008,-3,1,4,8,1,-1,-2,-2
594044,-3,3,9,2,0,1,-1,2
594044,-3,-8,4,-4,2,-2,-3,-1
609039,0,0,9,6,-1,0,-1,-1
609039,1,-4,-41,-17,-5,-1,-1,-3
616037,5,3,8,-4,-3,-4,-3,-2
616037,-7,-1,-3,7,4,0,0,0
625006,-6,2,4,-10,-3,-2,-2,-2
625006,-2,-15,5,-2,-1,-5,-3,-2
630988,1,2,12,3,-4,-1,-1,-1
630988,4,1,-12,-10,4,-1,-1,-4
645791,-2,-8,-27,-3,-6,-3,-2,-2
645791,-1,5,5,9,-3,-2,-2,0
654071,-2,-1,7,-10,-2,-10,-2,-2
654071,4,6,11,27,14,22,2,1
668071,-2,3,12,2,-4,0,1,0
668071,-2,-8,-22,-18,-5,-3,-3,-2
676072,0,1,39,19,-3,-4,-4,-2
676072,-2,-8,-58,-53,-19,-9,-4,-1
684072,-1,3,6,1,14,0,-3,-3
684072,-1,1,6,-2,1,3,1,0
691073,-2,-4,1,19,0,1,1,-1
691073,-1,3,36,26,2,-5,-2,-2
705074,-1,-8,-56,-30,-8,-1,-4,-3
705074,-1,2,6,1,0,0,3,1
713075,-2,-1,-4,-7,1,4,0,-2
713075,-2,-2,-17,7,0,-5,-2,-2
728076,-1,2,10,9,-4,-3,-2,-1
728076,-1,5,20,9,4,-1,0,0
735076,-3,-9,-21,-23,-6,0,-2,0
735076,0,0,-4,-3,-1,-3,-1,-1
744581,-1,-2,6,9,1,-3,-1,-2
744581,-3,-1,-19,-12,-5,-3,1,-2
750588,0,-2,17,18,-3,-1,1,0
750588,-1,2,7,-26,19,4,0,0
765088,0,1,-13,-5,4,5,2,0
765088,-2,0,28,16,-2,1,1,-1
773087,-3,2,-13,-11,3,-4,-4,-2
773087,-3,-1,4,13,-15,-8,-2,-1
788089,-1,-7,-4,-19,-9,-5,-5,-1
788089,0,-3,-4,-14,-1,0,0,0
795089,-2,-2,-15,10,2,-2,-3,-5
795089,-2,-2,-21,-11,-4,0,1,-1
804090,0,0,9,0,-2,-3,-1,-1
804090,0,0,0,11,0,-4,-5,-3
818091,0,-2,15,21,0,1,1,-1
818091,-1,-2,-16,-28,-3,-8,-4,-1
825090,0,-1,-4,-2,-5,-2,-1,-2
825090,-2,0,-3,0,1,3,0,2
833090,-1,3,2,0,-2,-3,-4,-3
833090,-3,-1,22,13,-1,-1,0,-4
848602,-2,-3,10,-11,1,-1,-2,0
848602,-1,-1,-5,2,1,-1,-2,-1
855101,-2,-3,-36,-22,0,0,-1,2
855101,0,-1,6,3,-1,1,-1,-1
864101,0,0,8,20,1,0,0,0
864101,0,0,12,2,-2,-4,-2,-4
871102,-1,-4,0,-1,-3,-1,-2,2
871102,-1,0,-9,-3,-1,0,-3,-2
885103,-2,0,-1,6,-4,-3,0,-1
885103,-2,-3,-6,-6,-3,-4,-5,-3
893103,-3,1,-3,-14,-8,-6,-3,-2
893103,-1,-3,13,7,5,0,0,0
908104,-3,-3,-13,2,12,3,3,2
908104,1,-1,-17,-9,-3,-5,-5,-3
915104,0,-2,8,-3,-7,-1,1,1
915104,-3,-1,0,14,-2,-2,2,0
924105,-3,-1,5,-2,2,-2,1,-3
924105,-2,-2,0,-14,-4,-2,0,1
938826,-3,-4,-16,-11,0,0,1,0
938826,-1,1,-6,-8,-6,-6,-6,-3
945856,3,12,12,14,-3,-3,-3,-3
945856,-5,-18,3,5,1,5,7,2
953117,-1,-5,-7,-8,-1,1,-1,-1
953117,-1,-2,-7,-2,-2,-1,-3,-1
968117,1,0,0,-3,-3,-2,-7,-3
968117,1,7,-4,-6,2,-2,-1,-3
975118,0,-1,35,14,-2,1,1,-2
975118,1,-6,-41,-16,-4,-3,-3,0
984119,-3,0,0,-7,-5,-2,-2,-1
984119,-1,0,7,13,6,0,0,-1
998119,1,-2,-3,-22,-8,-3,0,0
998119,0,3,15,11,0,-3,-1,-1
1005120,0,-4,-6,-11,-5,-3,-1,-1
1005120,-2,-1,5,40,-1,1,-2,-2
1013120,0,7,-19,-30,5,1,-2,-2
1013120,-1,-4,15,4,1,2,-2,-2
1028121,-3,-6,-14,6,-6,-1,3,0
1028121,-1,6,18,5,-3,-5,-3,-2
1035121,-1,0,-6,3,0,2,-1,-2
1035121,-1,2,7,-2,2,-1,2,1
1044627,-4,-5,-11,-3,-2,1,0,-3
1044627,0,-2,-9,3,-1,-2,-3,-1
1058133,-1,-1,15,14,-3,-3,-2,0
1058133,1,-2,-6,-44,-7,0,2,0
1065133,-2,-3,-6,24,3,0,-2,-2
1065133,-1,-1,-10,-11,0,2,0,0
1073174,-3,-1,14,15,-2,-6,-6,-2
1073174,-1,-3,-29,-4,-3,0,0,-1
1088135,0,1,19,4,2,-1,2,-1
1088135,0,1,-14,-17,0,5,-1,-3
1095135,-1,-2,-2,-6,-2,-3,-1,-3
1095135,-3,-2,7,11,-5,-3,-4,-5
1104135,-1,-2,-13,-4,1,-3,-3,-1
1104135,-2,-4,14,-5,-10,-7,-3,-1
1118137,0,0,-13,-36,-1,3,1,1
1118137,5,0,14,9,2,0,-2,1
1125137,-8,-1,-9,-2,-3,0,4,2
1125137,0,0,-3,2,-1,-2,-3,-3
1133138,-4,0,-14,2,1,0,1,-2
1133138,0,0,11,8,-2,-1,-1,2
1148680,4,0,2,-1,0,1,-1,-3
1148680,-1,1,1,10,1,0,1,1
1155150,-2,-2,-2,-17,-2,-3,-2,-2
1155150,-3,-6,-8,-12,2,0,0,-1
1164149,1,0,29,15,-4,-4,-2,-2
1164149,1,1,-3,-7,-3,-3,0,-1
1178151,3,-3,-1,18,4,4,2,1
1178151,-5,-1,-7,5,-2,-1,-1,-1
1185151,-2,1,9,-11,-11,-4,0,0
1185151,-2,-3,-3,-19,5,5,0,1
1193151,0,-3,-4,0,-2,-4,-1,-1
1193151,-1,-1,9,17,0,3,1,-1
1208157,-2,2,4,-22,-6,-4,-4,-2
1208157,0,-6,-17,11,1,-4,-2,-3
1215152,-3,-1,-31,10,2,0,1,-3
1215152,-3,-7,-20,-16,-5,-3,-1,-2
1224153,0,-7,3,16,-1,-3,-4,-2
1224153,4,-3,-9,-62,-3,-1,0,0
1238953,-8,-2,25,42,9,2,-3,1
1238953,0,-1,26,6,-5,-3,1,-4
1245863,2,0,-23,-6,3,0,2,2
1245863,-1,2,7,1,-2,-3,-1,-1
1253272,1,-1,-8,-18,-6,-5,0,-2
1253272,-3,4,13,4,1,-4,-2,-2
1269062,-3,-3,14,18,6,4,2,-1
1269062,-4,-3,-16,-12,-3,-2,-3,-2
1276063,0,-1,8,0,-1,1,0,0
1276063,-1,-4,-12,1,-4,-3,-8,-2
1291063,-4,0,-5,-26,-4,-1,1,1
1291063,-4,-7,1,19,-1,4,2,0
1298341,0,1,16,0,-1,-4,-2,-2
1298341,-3,-5,-39,-8,-1,-2,-3,-3
1313065,1,2,13,-2,0,0,-2,-1
1313065,-1,-7,-11,0,-1,-4,-3,-1
1314072,-2,9,34,3,-3,-1,-2,-2
1314072,1,0,-12,2,2,3,2,-1
1328279,0,0,-2,-8,-1,0,-5,-2
1328279,-3,15,15,16,0,0,-1,1
1335265,-1,-20,-31,-6,-2,-3,0,-3
1335265,-4,-3,15,-16,-10,-1,-1,-3
1350819,0,0,-6,30,17,6,0,0
1350819,-1,0,3,-10,-2,-4,-4,-2
1358477,1,6,-3,7,2,-1,-1,0
1358477,-2,3,9,6,-6,-5,-1,0
1373488,-2,-7,-7,-21,-10,1,1,0
1373488,1,2,7,-2,-1,0,0,-2
1381283,-2,-7,-25,-2,-3,-1,-4,-1
1381283,1,0,15,4,4,1,-1,0
1388571,-2,6,1,-3,-2,-3,-1,-2
1388571,-1,-2,2,4,-1,-3,-1,-1
1395568,-1,-4,-16,-43,-8,-1,0,-1
1395568,-1,1,19,20,3,3,-1,0
1410570,-2,-5,8,-3,1,1,-1,0
1410570,-1,-5,-19,11,-3,-2,4,-1
1418575,0,3,-6,0,-3,-1,-1,0
1418575,2,3,-7,-4,2,0,-1,0
1433286,-3,-7,-6,0,-4,-4,-3,-2
1433286,-4,1,1,-9,-4,0,-1,-3
1434286,2,-2,-6,8,2,0,-1,0
1434286,-2,1,47,4,2,0,2,-3
1448583,-3,5,-39,-12,-5,-5,-4,-2
1448583,1,8,-3,3,2,-1,-1,0
1455905,-2,-3,11,25,-1,1,-3,-2
1455905,-2,-5,-9,-28,4,-2,-2,0
1471097,1,-5,8,-1,-1,0,-1,0
1471097,3,-1,-3,-5,-1,-1,-2,-1
1478193,-10,4,11,-4,-2,-2,0,-2
1478193,5,0,-5,12,-3,-1,0,-1
1494070,-2,-3,2,-3,-5,-2,-1,-3
1494070,-3,1,-8,-7,-2,-2,-2,-1
1494070,1,0,10,4,-1,0,1,1
1494070,-2,-3,-14,0,-2,0,-1,-3
1508908,0,1,1,-3,0,0,2,0
1508908,-1,-3,4,-6,-6,-3,-2,-3
1516016,1,-4,-3,-19,-2,-2,-2,-3
1516016,-3,5,5,23,2,1,-2,-1
1529910,0,3,24,29,4,1,-2,0
1529910,-3,-5,-24,-26,-4,-1,-2,-1
1538436,-1,-2,10,-8,-1,-1,-2,-3
1538436,-3,-2,-47,-33,-6,-3,-1,-1
1552935,2,2,31,6,-1,0,-2,0
1552935,-1,-1,14,20,1,-1,-1,-1
1553944,1,-1,6,-14,-4,-4,0,-2
1553944,3,8,-1,16,1,-2,0,-2
1567947,-1,-12,-19,-20,-7,-4,-3,-2
1567947,-13,-7,-14,1,1,0,0,0
1574945,-1,0,-1,7,0,1,0,2
1574945,1,-3,11,2,-9,-6,-3,-4
1589950,4,2,-14,-7,4,-1,0,0
1589950,-2,-3,2,-3,-3,-2,-2,-1
1597945,-2,-3,-6,12,3,0,1,-3
1597945,-4,-1,4,-34,-2,-3,-2,-1
1613946,-3,0,26,59,4,-1,-1,-2
1613946,-2,-13,-62,-27,-8,-4,-2,-3
1613946,0,7,30,2,0,-2,-3,0
1613946,-3,-3,-3,5,3,2,0,-1
1627946,0,0,-2,-16,-3,1,0,0
1627946,1,1,-7,0,-4,-2,-2,-1
1635972,-1,-4,-2,1,-3,0,-2,-1
1635972,0,-9,-14,-1,-1,1,0,-1
1658549,-3,5,-2,-12,-3,-5,-2,-3
1658549,-1,-7,8,15,1,0,1,0
1659576,-2,4,-7,-14,-4,-1,-3,-4
1659576,0,5,15,8,0,0,1,0
1675602,-3,-5,-21,-5,0,0,0,-1
1675602,0,1,13,-4,-4,-2,-1,0
1676602,1,-4,-11,0,-3,-1,-1,-1
1676602,1,-3,-4,0,3,1,-3,1
1688632,-2,8,9,3,-1,-2,-4,-2
1688632,0,-13,26,6,0,-1,-1,-3
1695558,-1,-1,-24,8,1,-2,0,-2
1695558,-3,-13,-21,-11,-4,-1,1,-1
1710569,-3,-6,0,-17,-6,-3,-2,0
1710569,2,15,6,0,-1,-2,-1,-1
1718431,-8,-14,-32,-16,-5,-1,-1,2
1718431,4,9,16,7,1,-2,-2,-3
1733360,3,0,-14,-9,-2,0,2,1
1733360,2,1,7,9,1,0,-2,-4
1734360,-3,-3,6,5,1,-1,-1,-2
1734360,-1,0,-7,1,-1,-1,-2,0
1748376,-2,-3,-7,-6,-1,-1,0,-2
1748376,-3,3,13,-2,1,0,0,2
1755374,0,-2,-12,-43,-1,0,0,-2
1755374,-4,-3,11,33,5,0,-2,-1
1770381,-3,-4,-7,-15,-6,-4,-3,-3
1770381,-1,-1,0,9,1,2,-1,3
1778416,1,-2,12,13,2,1,0,1
1778416,-6,-19,7,-16,-3,-1,-2,-4
1793377,-3,17,41,-15,-3,0,-2,0
1793377,2,-7,-27,35,6,-5,-4,-1
1801386,3,-1,-30,-24,-11,-5,-4,-3
1801386,-8,8,-11,-7,-2,0,0,2
1808378,-3,-18,-8,8,-1,-2,-1,-2
1808378,-4,-4,23,-10,-3,-1,-4,-4
1815383,2,5,19,8,1,-3,0,-1
1815383,-1,-1,-7,6,-1,-3,-1,1
1830384,-1,-2,-18,-5,-3,-1,-2,-1
1830384,4,12,0,-14,-2,-2,0,1
1838835,-6,-8,0,17,3,1,-5,-5
1838835,0,2,-5,-9,-5,0,2,-1
1853780,-3,-4,-9,-14,-1,0,-1,-1
1853780,-2,-2,3,16,0,0,0,-1
1855003,1,-2,-6,6,-2,-2,-2,0
1855003,-1,3,18,3,0,0,-2,0
1868784,-1,-1,-15,3,2,0,-2,-3
1868784,2,9,5,-21,-4,0,1,1
1875785,-4,8,53,19,3,-1,0,-1
1875785,0,-7,-40,-9,-3,-1,0,3
1890970,-8,-6,-13,-22,-2,-2,1,-2
1890970,13,1,18,0,-3,-3,0,6
1898997,-5,6,0,0,-2,0,-2,-9
1898997,-13,-2,-15,-13,-4,-3,-5,-4
1913851,1,-1,-2,11,-1,-2,-1,-2
1913851,-8,-5,0,-6,2,3,-1,-4
1922057,3,-3,4,4,-2,1,1,5
1922057,4,3,6,7,1,-4,-1,-1
1929085,-1,-4,-14,0,-4,0,-1,-4
1929085,-5,-5,-12,-10,-5,-3,-1,-3
1936056,2,0,-3,6,1,-2,-1,-1
1936056,1,3,-1,-5,-2,0,-2,-2
1951085,-2,-1,2,5,4,0,-3,2
1951085,-3,-5,3,-2,-4,-4,-3,-2
1958129,-2,0,-13,-2,1,0,0,1
1958129,0,-1,-1,-29,-4,-2,-1,0
1974093,1,-4,12,40,5,-1,-1,0
1974093,-4,7,17,-5,-1,-2,-1,-2
1981120,-2,-2,-61,-12,-5,-1,-1,-2
1981120,1,0,7,-6,-1,0,-1,-3
1988130,2,0,-9,-4,-2,-1,-1,1
1988130,-2,-15,-24,-4,0,-2,-4,-3
1996094,-1,-6,6,-8,-2,-3,-1,0
1996094,4,-5,7,8,-1,0,1,1
2011095,0,8,4,-4,-1,0,-1,-2
2011095,0,5,-1,2,-1,0,2,1
2018427,0,-14,6,0,0,0,-2,-2
2018427,-4,-7,-7,7,-2,0,2,-2
2034097,-1,-8,-4,-3,-6,-1,0,-1
2034097,-3,4,-5,-9,-2,-2,-4,-3
2041696,1,2,5,-10,-3,-3,-1,0
2041696,1,3,12,17,1,-3,-2,-3
2049391,-2,-5,16,-4,-1,0,-1,3
2049391,3,0,-8,2,-2,-2,-3,-5
2056022,-1,-1,-2,-8,-4,-2,-1,0
2056022,-1,-3,-10,-7,-4,-2,-2,-1
2072719,-1,-3,-12,-7,-3,-2,-1,-2
2072719,-5,-10,0,3,0,0,4,2
2079060,-2,2,-4,0,2,-2,-3,-1
2079060,0,4,4,4,3,1,3,2
2094051,2,-3,-6,0,0,-1,-4,-3
2094051,-6,-7,-22,-8,-2,-2,0,-1
2101727,0,8,0,4,-3,-3,-3,-3
2101727,1,-11,-1,-6,-4,-2,-12,0
2116758,0,-4,-9,-11,-2,-3,6,-2
2116758,2,7,38,26,7,1,-1,-2
2117686,-13,5,-2,-5,-3,-1,-2,-4
2117686,-2,3,0,10,-1,-4,-5,-6
2130691,-2,-3,-1,-13,-1,0,-2,-1
2130691,2,-4,-5,-6,-2,1,-2,0
2138727,5,-2,4,7,-2,0,-1,-2
2138727,-2,6,7,-3,4,0,1,0
2153738,-3,-3,1,-2,-7,-3,0,-2
2153738,-9,-1,-8,-3,-2,-2,-16,-6
2161747,3,-5,2,2,2,1,10,2
2161747,-7,-6,-9,-5,-2,-2,4,3
2176749,4,14,15,2,3,1,-14,9
2176749,4,0,15,4,1,2,47,-1
2177748,-1,-12,-6,-6,-1,-4,-25,-3
2177748,-1,8,-2,-2,-3,0,20,-1
2190749,-1,-5,-25,-2,-4,-3,-8,-7
2190749,-3,5,24,-3,-1,-1,-11,-1
2198749,-2,-1,-5,2,-1,-1,-4,2
2198749,1,3,0,0,1,-1,-6,-3
2213751,1,-3,-2,3,-2,-2,-1,-2
2213751,-3,-5,-16,-5,-2,-2,-7,-1
2221751,0,-1,0,-3,-3,0,5,-2
2221751,-2,-4,-2,1,-2,-2,-12,-4
2236969,1,2,7,-1,0,0,9,0
2236969,0,6,-5,0,1,3,-1,0
2237938,-2,-2,3,-3,-5,-3,2,0
2237938,-2,-2,0,-1,-3,-2,2,-1
2250965,-4,0,6,13,4,-1,-2,-2
2250965,6,2,-2,-19,-5,0,0,1
2258534,-5,-17,-8,14,2,-1,1,-3
2258534,0,1,-4,-5,-4,-1,-3,-5
2273750,3,10,-12,-11,0,-1,-6,-5
2273750,-6,-1,-9,9,1,1,10,1
2281468,5,3,-1,-13,-2,0,3,3
2281468,0,-7,-9,-1,3,0,0,2
2296469,-3,-4,4,-8,-3,-2,1,-2
2296469,-3,-3,-6,4,-3,-3,-6,-7
2297469,1,6,3,0,2,0,2,0
2297469,-5,-15,-1,-1,-3,-3,0,-1
2310683,-3,4,18,0,-1,-2,-4,-6
2310683,4,3,-27,-8,-3,-3,-5,0
2318746,-7,-5,0,-3,-4,-3,-4,-2
2318746,8,-1,11,3,0,-1,-5,-2
2333543,-4,-5,-6,-6,-3,-2,0,-2
2333543,-3,-10,-6,0,-2,-1,-6,-1
2341984,1,8,5,3,-2,-2,1,-1
2341984,2,4,-5,-9,-1,-1,0,-2
2356927,-4,-4,-5,4,-2,-1,0,0
2356927,-1,-5,-8,-2,0,-2,1,0
2357919,-2,1,8,0,0,-1,-4,1
2357919,-1,-3,-8,0,2,-3,-5,-5
2370914,4,-5,6,3,-1,1,14,4
2370914,-10,6,0,0,-4,-1,-17,-2
2378693,-4,-8,-11,-1,0,0,4,-8
2378693,4,8,-10,-4,-2,-1,-4,1
2393688,-1,-6,4,6,0,-1,0,7
2393688,-1,-7,-21,-4,-1,-2,-5,-4
2401915,1,-4,-1,-3,0,0,-2,-1
2401915,-5,7,11,2,-4,-2,-1,2
2416941,-1,1,21,5,-1,-3,-1,-7
2416941,2,-1,6,-6,-4,-3,-3,1
2417900,1,-5,-1,-1,-1,-3,-2,1
2417900,1,-2,-4,0,0,0,1,0
2430694,-3,1,-7,-4,-1,-1,-1,-1
2430694,-2,-7,2,-3,-4,-3,1,-1
2439029,1,5,2,0,-1,-1,-2,-8
2439029,-12,-4,1,-4,-3,-2,-4,-8
2453604,0,-2,-12,-1,-2,-1,-7,7
2453604,-4,3,10,5,0,-2,-3,-3
2461552,4,2,-2,-3,0,2,18,6
2461552,0,1,9,1,-1,0,2,-2
2476913,-4,-6,-13,0,1,-2,-2,-4
2476913,4,6,-17,-7,-1,-3,-8,-4
2477546,-2,5,11,3,0,-1,-6,-1
2477546,0,-7,7,3,-2,-1,2,3
2492549,-2,3,-9,-2,-1,-2,-3,-10
2492549,1,-8,1,-1,1,-2,0,2
2498549,-2,6,-2,2,1,0,0,-1
2498549,2,3,-5,-6,-5,-1,1,4
2513549,0,-11,-14,-21,-5,-3,-2,-2
2513549,-1,-2,14,18,4,-1,4,2
2521841,-2,-5,-3,1,-1,-2,-5,-4
2521841,0,-2,-5,2,2,-1,-2,-4
2536621,-3,3,13,0,-6,-2,-1,6
2536621,-1,3,-10,-11,-5,-3,1,-5
2537587,-2,-4,-2,-1,0,-1,-2,0
2537587,2,-2,-3,2,1,-2,-2,-5
2550800,-3,4,-13,1,-2,-3,-1,6
2550800,6,-3,13,-3,0,2,6,1
2558933,-2,-1,10,-3,-3,-2,-3,-1
2558933,0,-2,-5,-5,-2,-1,-4,0
2573931,-1,4,-1,2,2,-1,-2,-7
2573931,-3,1,-3,-2,-3,0,-1,0
2579834,-4,-11,-9,3,1,-1,-1,-2
2579834,-2,-3,11,3,-3,-2,-14,-5
2596049,5,-1,1,0,1,1,5,-2
2596049,-11,-6,-2,-2,-1,-1,-6,-1
2597966,1,0,-3,-6,-2,-1,1,-2
2597966,-1,-5,4,1,-2,-2,-1,1
2610909,-1,3,-2,6,1,-2,-2,-3
2610909,5,-5,1,-6,-2,-2,-2,1
2618048,-7,0,13,4,-4,-3,-8,-4
2618048,-5,2,-15,-1,-1,-2,3,-1
2633915,2,-15,-18,-3,-2,1,-4,0
2633915,2,-3,34,5,0,-2,24,-2
2641815,-11,1,-5,-6,-3,-2,-2,2
2641815,6,3,4,0,0,1,8,20
2656920,-2,3,0,-1,1,-2,-16,-8
2656920,-1,-4,3,-4,-5,-3,-2,2
2657927,2,6,-5,-1,1,-2,-6,-2
2657927,-6,-3,-2,-2,-2,1,2,-6
2670922,2,-3,-3,-7,-4,-3,-3,0
2670922,-2,0,-1,0,3,-2,-7,-2
2678774,2,-6,-1,-1,-1,-1,-1,-6
2678774,-1,5,-5,2,2,-1,-5,-4
2693909,-7,0,9,4,1,0,4,-3
2693909,2,-2,-11,-3,-3,1,-1,-5
2701997,-1,-13,-11,0,0,0,1,3
2701997,-1,-5,-1,-3,-1,-1,2,-3
2716992,-1,0,-2,-2,-1,0,2,-1
2716992,-5,1,-14,-4,0,-3,-21,-7
2717777,3,-6,-2,-2,-2,0,38,0
2717777,3,3,14,-1,-1,4,12,0
2730778,-4,0,1,-4,-5,-2,5,-2
2730778,-1,0,1,2,-2,-1,-7,0
2738779,1,6,-2,-6,-2,-2,-16,-3
2738779,-4,-18,-14,-2,-1,-4,-10,-7
2753796,-1,0,-3,1,-1,-2,4,4
2753796,0,-4,-2,0,-1,1,0,0
2761803,3,2,0,-1,0,-2,-6,3
2761803,-8,-1,-1,-3,-2,-3,-3,-13
2776804,2,5,11,5,2,2,-14,11
2776804,0,-8,-8,-4,-2,0,12,1
2776804,0,-1,-13,-3,-3,-3,-6,-4
2776804,1,12,10,0,0,-2,-30,-1
2789809,-6,-2,5,-2,-4,-2,16,-9
2789809,3,1,0,1,0,2,13,9
2797810,1,-3,3,-1,-2,0,-5,-2
2797810,-4,-2,-8,-5,-4,-1,-5,-1
2812805,-1,-3,2,0,-1,-3,-12,-7
2812805,-5,-3,-14,-3,-2,-3,-10,-3
2820907,-4,1,-1,0,-1,-2,0,-2
2820907,0,-3,6,1,-1,1,1,0
2835906,-2,-3,-8,-2,-2,-3,-5,2
2835906,-1,-5,-4,-5,0,-1,1,0
2843511,-2,4,-3,-3,-5,-4,-7,-4
2843511,-3,8,-15,-2,-1,-2,6,0
2850508,-2,-6,17,1,1,0,6,-1
2850508,-1,0,-2,2,0,-2,-8,-5
2858017,-5,4,4,-1,-2,-1,-6,-1
2858017,-2,-13,-7,-1,-1,-1,-11,-3
2873019,1,1,-7,-2,-1,-1,1,17
2873019,-4,1,0,-3,-4,-3,-7,-10
2880017,1,-6,-1,0,0,0,0,2
2880017,0,-1,0,0,0,-3,-4,-2
2896018,-1,-3,-8,-1,0,-2,-10,-9
2896018,-5,-1,1,1,1,0,-1,1
2912236,-2,-1,-1,-5,-4,-2,-2,1
2912236,2,11,9,3,0,-1,10,-7
2915019,0,-4,4,0,-1,-1,6,8
2915019,2,1,11,0,-1,-2,-10,9
2918246,-4,-2,-4,5,5,1,0,-7
2918246,-2,-11,-1,-7,-2,-3,2,0
2933237,-11,5,4,-1,-4,-1,-12,-3
2933237,14,-1,-14,-6,-4,0,24,-3
2941032,1,-3,9,-3,-1,0,-3,2
2941032,-2,-3,-5,-1,0,1,7,5
2955602,0,2,-6,-2,-1,-1,-6,1
2955602,-7,-8,-5,-3,-2,-2,-12,-1
2963611,0,-1,-1,1,0,0,-8,1
2963611,2,6,-3,1,0,-1,24,1
2970616,-2,-5,-10,-6,-3,-2,1,-8
2970616,-1,-4,9,2,0,-3,-6,2
2978927,-6,-1,-17,-2,1,-2,-5,-9
2978927,-4,-3,13,0,-4,-2,5,6
2993618,2,-4,-12,-2,3,-1,2,2
2993618,1,13,4,-2,-5,-3,-11,-7
3000613,0,-11,0,-1,-1,0,2,0
3000613,-3,-2,-9,-2,0,-1,-3,-5
3015626,0,3,-1,-2,-1,-2,0,-9
3015626,-5,-2,-3,-1,0,-4,-13,2
3023613,-5,-6,-1,-3,-2,-1,6,-13
3023613,0,-6,-7,-1,-2,-1,-7,6
3038613,8,11,10,5,-1,-2,9,-2
3038613,-5,-10,-11,-3,-3,0,-11,-5
3046625,-2,-9,5,-2,-3,-3,-9,-1
3046625,0,-3,-8,-1,1,-1,-6,-3
3053861,-1,4,1,-4,-3,-3,-21,-25
3053861,-2,3,16,3,3,6,47,17
3060638,-2,-1,-22,-3,-2,0,1,18
3060638,-3,-4,9,-1,-2,-2,-6,-2
3075869,-3,1,-19,-1,-3,-3,-5,-3
3075869,-3,5,15,3,1,0,1,-8
3083869,-4,0,-1,-2,-3,-2,4,-2
3083869,8,0,4,-3,-2,-3,-5,-3
3098866,-4,-4,-2,1,0,3,13,9
3098866,-3,-15,-15,0,-2,-1,-11,-10
3099870,1,13,3,3,1,1,-2,7
3099870,-1,-6,-3,-1,-1,1,8,-3
3113640,1,-7,7,-2,-4,-4,-4,-10
3113640,-13,-7,-6,-1,-2,-2,-28,-3
3120944,2,1,-20,3,5,2,39,2
3120944,0,3,2,-7,-10,-7,-10,-10
3135945,-4,-2,1,0,0,3,31,23
3135945,-2,-2,2,0,0,1,19,-4
3143736,3,-4,1,-5,-6,-4,-20,-1
3143736,-3,4,0,5,4,0,-4,-9
3158664,2,-4,-3,-6,-5,2,3,11
3158664,0,-9,-11,-2,-2,-3,14,-3
3159251,2,8,10,-4,-3,-3,-11,-4
3159251,-3,-2,-13,0,1,-1,-4,5
3173287,-4,-15,12,2,-1,-3,-18,-10
3173287,3,13,-35,-3,0,0,4,-2
3180253,-2,1,8,-3,-2,-1,2,-5
3180253,-6,4,11,2,-1,-1,-5,9
3196253,0,-14,-14,-4,-1,-2,2,-10
3196253,-4,-3,11,2,0,-3,-14,-4
3203257,9,-1,0,1,-2,-1,-12,2
3203257,-9,3,2,-1,-1,2,41,4
3218254,-1,2,1,1,-1,-3,-5,2
3218254,3,3,4,-1,0,1,-3,-4
3219253,0,-4,0,-9,-7,-6,-16,4
3219253,5,-1,-1,-2,1,1,-9,-3
3233326,-1,-6,3,0,2,-2,-10,-11
3233326,-2,14,0,0,-2,0,25,4
3240775,-4,-7,9,4,1,0,-3,-3
3240775,-1,-1,7,-3,-6,-2,-3,-2
3255778,4,9,1,2,-1,-1,-3,1
3255778,2,-1,10,-1,0,-1,-14,0
3263284,-9,-4,-3,2,2,1,4,-8
3263284,2,-7,-23,-4,-4,-2,-2,0
3278497,-1,4,0,-1,-3,-3,-7,5
3278497,1,5,8,-1,-1,-1,0,-3
3279284,-2,1,4,-4,-3,-1,-2,-9
3279284,-4,-7,0,4,3,-2,-11,-2
3293577,-5,-2,-6,-6,-5,-3,-23,-4
3293577,3,-6,-12,-5,-2,0,30,8
3300498,-4,-3,-1,1,0,-2,5,2
3300498,-5,-3,4,2,0,-3,-24,-15
3324517,2,0,-17,-7,-3,-1,16,1
3324517,2,2,24,0,-5,-5,-9,-8
3325322,4,-10,-7,-3,2,1,-5,-3
3325322,-2,7,14,3,1,-1,-6,-6
3338576,-3,-1,-1,-3,-1,1,23,4
3338576,-6,-7,-9,1,-1,-2,-17,-15
3339288,3,6,2,0,-2,-1,5,2
3339288,-3,4,10,-2,1,-3,-9,0
3354061,-4,-10,-25,-3,-1,-3,1,-7
3354061,7,14,5,-1,0,0,-11,1
3360645,-11,-17,0,-1,-4,-1,2,1
3360645,2,4,-10,-2,-1,1,9,12
3375641,-3,-15,7,3,3,0,-4,-3
3375641,-7,-10,-5,-5,-4,-2,-22,-2
3384641,0,5,-8,-1,-1,-2,3,-3
3384641,-3,0,13,-3,-4,-4,4,-6
3398874,-1,-2,-22,-2,-1,0,-1,2
3398874,3,11,6,1,0,-1,-25,-4
3399911,-2,-1,2,3,1,1,30,5
3399911,1,-9,-40,-8,-5,-1,-1,1
3413641,2,7,9,2,1,-1,-6,5
3413641,-4,-17,-3,-2,-1,1,21,3
3420907,-2,1,-1,-1,-2,-2,-19,-7
3420907,-1,-3,2,-2,-2,1,7,11
3435909,-3,-5,1,-1,-4,-2,1,-6
3435909,-6,-2,-4,1,2,-1,-4,-5
3443968,2,2,-2,-4,-4,-3,-6,-1
3443968,7,2,8,4,6,1,3,15
3457903,-20,3,7,-2,-5,-3,-31,-6
3457903,2,-6,2,-8,-4,0,38,1
3467006,-2,-3,-13,2,1,0,-4,-10
3467006,2,1,1,1,-1,-2,-10,-1
3473975,4,3,8,3,-1,-2,-10,3
3473975,-3,9,-2,-3,-2,0,15,3
3479900,-9,-4,3,-1,0,-2,-9,0
3479900,-3,-5,-10,-1,-1,-1,6,-9
3494901,3,3,-16,-3,-3,-2,-17,-5
3494901,0,-7,-4,2,-1,0,-3,2
3502900,6,3,2,-2,-1,-1,-4,-5
3502900,-18,-6,4,1,0,-2,-4,7
3517900,8,15,9,-3,3,1,10,6
3517900,-15,-24,-27,-5,-7,-4,-18,-17
3518900,-8,6,1,1,-5,-5,5,13
3518900,25,4,5,6,-4,2,9,9
3532901,-30,-10,3,-9,4,3,23,-17
3532901,-1,4,3,9,7,1,-10,-5
3539901,-1,-7,4,-3,-3,-1,1,-12
3539901,-11,-5,-18,-4,-4,-4,-10,-9
3555409,6,9,12,4,-3,-1,13,18
3555409,-1,2,-2,1,2,-1,-42,-7
3562911,26,3,6,-4,2,6,28,-7
3562911,5,0,0,-15,-6,1,24,30
3579137,16,-2,-1,8,-5,-5,14,7
3579137,-32,-10,-3,7,4,1,9,-3
3579913,-10,-3,-3,6,5,-1,-11,-15
3579913,28,1,16,-10,-14,-8,-19,-27
3593927,7,-1,-12,-11,-4,0,-20,-4
3593927,0,-15,16,12,1,1,-5,19
3600928,4,18,17,-3,0,0,28,-6
3600928,-22,-13,3,-2,1,1,-2,-20
3614915,17,3,-12,-3,-2,0,-10,15
3614915,3,8,-2,-8,-3,-1,11,-9
3624930,-12,-8,-7,-6,-4,-2,-29,-2
3624930,-10,-4,-9,5,1,2,46,13
3638916,-2,2,7,3,2,1,-11,9
3638916,-2,7,10,-2,-2,-2,-3,10
3639932,4,-4,-2,1,2,4,6,6
3639932,-1,-3,-6,3,-2,-5,-7,-5
3653672,-25,-5,6,-9,6,-1,23,-3
3653672,50,7,-3,5,3,-3,-35,3
3660145,-28,-6,-2,-4,-8,-2,11,-1
3660145,-1,13,-11,0,2,1,-10,-6
3675428,17,-6,18,6,1,3,16,4
3675428,-20,-2,-9,-10,-7,-6,-9,-18
3683187,2,8,2,0,-2,-3,-11,13
3683187,-12,7,-1,5,1,-2,-24,-12
3698148,70,-14,-5,0,-2,1,8,9
3698148,-39,1,17,-8,-7,-6,-16,3
3699147,-6,-10,-21,3,3,5,18,2
3699147,12,0,-4,-11,-4,0,34,9
3713157,-10,6,7,6,3,0,-10,-10
3713157,16,-4,-24,-12,-8,-5,-10,-43
3720433,5,-6,-2,10,4,1,6,27
3720433,7,-6,-8,-5,-2,-3,-35,-22
3743662,-23,7,-8,-4,-4,-3,11,26
3743662,17,2,-2,5,0,0,11,-11
3744674,-13,-2,6,-7,-4,-7,-30,12
3744674,20,-8,-4,1,4,1,-19,18
3759182,-27,-10,8,8,0,-1,18,-21
3759182,-15,-2,-8,-12,-6,-3,-1,9
3760176,14,-1,-11,-3,-1,-3,-27,-18
3760176,-10,-4,10,0,-2,-1,3,-2
3774177,-13,0,-9,-1,0,-4,-27,-13
3774177,4,-2,-8,-4,-5,-1,7,12
3780178,7,-1,2,-5,-2,-1,0,-2
3780178,-9,-3,-2,5,0,-2,-4,-7
3795185,-10,2,1,-8,-7,-3,4,-16
3795185,9,-3,-4,5,1,2,14,13
3804213,-2,-3,0,-8,-2,-3,-6,-1
3804213,-11,2,6,4,0,0,-6,-8
3818221,0,3,-10,-5,-2,-4,-3,2
3818221,-1,-8,-1,4,3,0,3,10
3826179,1,4,5,-3,-8,-4,-8,-5
3826179,-4,-12,-38,-9,3,0,-3,-4
3843700,-8,5,23,-10,-3,-2,-11,-12
3843700,-1,2,2,18,9,4,17,12
3844701,-5,13,28,3,-3,-1,-11,-14
3844701,8,-5,-21,8,-1,0,8,1
3855702,-4,-16,-11,-26,-8,1,-7,-12
3855702,-6,3,-6,-12,-5,-3,-11,4
3864208,7,2,3,5,3,-1,-4,-1
3864208,-7,3,21,16,4,0,4,0
3878208,-1,-3,-10,-14,-3,-1,-11,-10
3878208,0,1,4,19,1,2,7,7
3886209,10,-1,-15,-8,-4,-5,-11,-6
3886209,-8,1,7,-21,-3,-1,-3,-14
3893209,-9,0,-10,16,1,-1,2,3
3893209,10,-1,0,-18,-4,-2,-1,-3
3900216,6,3,-5,2,2,0,6,5
3900216,-18,4,5,-1,-3,-5,-8,-6
3915210,-18,-25,-2,4,1,-2,0,-6
3915210,19,-11,-8,-9,-1,2,0,1
3924245,-3,4,-12,-1,-4,-1,-8,1
3924245,5,6,9,-2,-1,-1,-3,1
3947723,5,9,0,13,6,1,-5,-1
3947723,-14,1,4,-3,-6,-3,0,2
3948723,2,-10,-8,-3,-1,-2,2,1
3948723,6,-6,-6,-3,-6,-2,-7,-1
3953723,1,12,13,3,1,-2,-3,2
3953723,-16,-7,-9,-7,-1,-2,-4,-17
3960234,-6,-2,4,3,-1,0,4,-3
3960234,-3,-5,-6,-17,-2,-1,0,3
3975235,4,-1,-3,19,-1,-1,-4,-2
3975235,1,5,7,-7,1,-1,-1,-2
3984255,-6,-9,-3,-2,-3,-2,2,0
3984255,-9,-5,2,4,-1,-2,-7,3
3998236,7,-3,1,-6,1,0,14,2
3998236,6,5,-24,-2,-5,-3,0,-2
4006278,-15,-6,-3,0,0,-1,-4,-2
4006278,6,1,2,-2,-2,-1,12,3
4021279,2,-3,-3,0,-2,-1,-1,-8
4021279,-4,7,8,9,-1,-1,3,2
4022246,-2,-2,-9,-14,-1,0,2,-6
4022246,-1,-5,-4,4,-2,-2,-1,5
4035239,-1,-1,15,-7,-6,-3,-3,1
4035239,-3,-3,0,3,-1,-3,-1,3
4044260,2,5,8,-12,-2,0,-1,-3
4044260,-3,6,10,40,6,0,-2,-4
4058271,-1,-6,-6,-23,4,1,0,-2
4058271,-1,-4,-2,1,-2,-2,-4,-3
4066508,-4,-1,2,18,0,-1,1,1
4066508,-3,-9,-21,-12,-8,-3,5,2
4081313,12,8,7,9,2,-2,-2,25
4081313,-2,-12,5,-2,2,1,4,2
4082310,-2,-3,-38,-12,-7,-4,-3,-15
4082310,1,11,21,-10,0,-3,-8,-3
4095279,-15,4,-9,12,2,1,-5,-11
4095279,1,-13,-2,-6,0,0,-12,-2
4103309,8,-12,7,4,-1,0,-2,14
4103309,-3,-4,-7,-10,-2,1,-2,-4
4118275,8,14,-3,-1,-4,-1,19,2
4118275,1,3,6,1,-1,-2,-7,1
4126311,-9,-3,-3,1,0,-2,0,-8
4126311,-2,-13,-6,-4,-4,-2,-13,-1
4141276,-6,2,-3,-1,-3,-1,-8,-5
4141276,0,1,7,1,0,1,6,0
4157285,3,2,-7,-1,-1,-1,0,3
4157285,-2,1,0,-3,2,0,5,-2
4159299,-3,-10,-6,0,-5,-3,-14,-9
4159299,3,14,1,-3,0,0,14,11
4163292,-1,-7,4,-4,-2,-1,0,0
4163292,-3,-16,-6,0,-2,-2,-9,7
4178293,-2,-7,-4,-2,-2,-2,7,-23
4178293,-14,4,-10,0,-1,-4,-11,-14
4186293,27,13,0,2,3,3,47,27
4186293,0,5,10,-2,-2,-1,2,-13
4201538,3,-10,-7,-4,-3,-2,-7,5
4201538,-13,-6,4,-3,-1,-1,-4,-5
4202542,1,10,15,3,0,-3,-14,-5
4202542,-11,-3,-17,-7,-3,-2,4,-2
4215493,4,7,-3,-1,1,0,0,6
4215493,2,-3,-2,-2,0,0,1,-3
4223572,-8,-8,11,2,0,-2,-6,-2
4223572,5,4,3,-1,-1,0,-4,3
4238571,-10,-4,-1,0,1,-1,-8,-4
4238571,5,2,-7,-5,-5,-2,4,4
4246498,-2,-7,-5,-2,-2,-1,-9,-8
4246498,-1,2,1,3,0,1,13,-3
4261198,-2,-2,-7,-7,-5,-3,-19,-3
4261198,-2,-7,0,-1,-1,0,44,-1
4262198,-9,-4,-3,1,0,-1,-15,9
4262198,5,8,3,-1,-3,-3,-10,-3
4275392,4,6,2,2,-2,1,17,-1
4275392,0,-11,-2,-3,-1,-1,-18,-2
4283444,-4,-12,-3,-2,-3,-3,-10,-8
4283444,-7,1,4,2,3,0,3,-3
4298200,-4,-3,6,0,-1,-5,-14,6
4298200,2,-5,-6,-3,-2,-1,-5,-4
4306407,-4,6,-4,-3,-2,1,4,-5
4306407,1,-4,-3,-3,-1,0,-9,0
4321505,6,7,9,-1,0,-1,6,0
4321505,-17,-11,-5,0,0,0,-3,-1
4322202,-16,-1,5,2,0,-1,-10,-7
4322202,22,5,-11,-8,-7,-4,-3,-5
4335488,-2,-2,-6,-1,-2,4,35,15
4335488,3,2,-4,2,1,-1,-2,-2
4343796,-2,-1,-1,-1,-2,-5,-11,-6
4343796,-2,1,4,3,1,0,8,0
4358978,5,-4,-2,1,0,0,-12,-9
4358978,-2,-2,-12,-4,-1,-3,-12,5
4366838,-1,-11,-17,-3,-3,-2,4,-3
4366838,-4,10,19,1,0,-2,-14,-5
4380838,2,-6,-7,-2,-1,-2,2,8
4380838,-1,1,4,-2,-5,-4,2,2
4381839,15,9,7,-3,-1,-2,-4,-7
4381839,-14,-11,-11,-3,-4,-4,-1,0
4395840,1,-11,-3,-2,1,3,-1,-8
4395840,-4,2,8,-1,-2,-1,-3,-6
4402846,3,4,-8,-2,-2,-1,5,3
4402846,-11,-8,-5,-2,-1,-1,-15,-2
4417847,7,5,9,1,-3,-2,6,1
4417847,5,6,8,2,2,1,-11,-7
4434972,2,-1,2,-3,-2,2,19,-1
4434972,-3,0,-9,-1,-1,-2,-6,-4
4441133,-11,-11,-10,-8,-6,-2,2,-7
4441133,2,3,16,-1,-1,-2,-9,0
4442353,-6,-10,-5,0,1,-2,-3,-2
4442353,2,9,6,1,1,2,0,0
4455359,-6,-9,-4,-1,0,-2,-8,-1
4455359,5,-2,-7,-4,-1,-2,9,2
4462862,-4,3,4,3,0,0,-3,0
4462862,-2,-7,-2,-4,-1,-1,5,0
4478999,-3,-9,-9,-2,-2,-3,-12,-9
4478999,-2,19,9,1,1,0,6,8
4485869,3,-4,-4,-1,-1,-2,12,-3
4485869,4,-15,9,0,-1,-4,-3,3
4501980,-2,19,4,0,2,2,-32,-2
4501980,0,-6,-10,-5,-2,0,27,2
4501980,-4,3,-5,-1,0,-1,-9,1
4501980,1,2,1,-3,-4,-2,-8,4
4515961,-17,-11,-5,0,-1,-2,4,-11
4515961,-5,-6,-6,-2,-2,-2,-14,1
4523971,2,11,8,-1,-1,0,0,-2
4523971,-6,-11,-11,-1,-1,-1,1,-1
4537872,0,10,0,1,-1,-3,-6,-8
4537872,-1,-18,-10,-3,0,-3,-13,8
4546390,-11,3,6,-1,-3,0,12,-2
4546390,2,1,-24,-1,0,2,9,-3
4560898,-4,5,3,-2,-3,-4,4,2
4560898,2,-5,5,1,-4,-1,2,-5
4562898,-2,-5,-8,-4,-3,-4,-19,-1
4562898,2,5,10,3,0,0,2,0
4574905,0,-7,-4,-3,-1,-1,1,4
4574905,-1,1,-8,-4,-2,-2,-3,-6
4583184,2,-5,0,-2,-1,3,10,2
4583184,-1,0,-2,-1,-1,-1,-7,-5
4598899,0,-4,-11,-1,2,1,16,7
4598899,3,12,14,0,-1,-4,-2,-11
4606900,-4,-12,4,-3,-1,-2,-4,1
4606900,-2,6,4,0,0,-1,2,0
4621901,9,-1,-5,-5,-3,-2,-12,-5
4621901,-10,12,-2,-1,-2,-2,-11,-5
4622901,4,-14,-8,0,-1,-1,5,-7
4622901,-8,-4,5,-2,-1,-1,-8,2
4635900,4,-1,-2,0,-1,0,16,4
4635900,2,1,4,1,-1,1,-2,-6
4643886,-2,-1,4,3,3,-1,-6,6
4643886,-5,-1,-1,-3,-4,-3,-9,-4
4658969,2,-1,-4,-6,-5,-3,-5,4
4658969,2,-1,0,1,1,1,21,1
4665933,-7,-2,1,2,-1,-1,-13,-4
4665933,4,-1,-4,1,0,0,9,1
4681931,1,11,12,-1,-1,-2,-7,-3
4681931,-18,-15,-13,-1,-2,-2,-4,-3
4681931,2,1,-5,-2,-2,-1,-1,0
4681931,-1,-3,-11,-2,0,-1,7,2
4704933,-5,-1,8,0,-2,-2,-4,-4
4704933,6,-2,-5,-2,-3,0,-3,2
4705932,-2,5,0,-1,1,-4,1,-1
4705932,1,-2,0,-2,1,0,-3,-4
4718933,-1,7,15,2,0,0,-1,-3
4718933,-2,-15,-28,-2,-1,-1,0,-2
4726934,3,-2,-17,-2,-3,0,-2,1
4726934,-2,5,9,-4,-1,1,5,-1
4740966,-2,-7,-1,-1,-1,-2,-5,-4
4740966,4,-2,3,-3,-2,-1,-7,2
4750002,-3,-5,10,0,-3,-3,-2,-6
4750002,-2,-2,-12,0,1,-1,3,3
4756018,-7,2,-1,2,-1,-1,-7,-6
4756018,4,-1,-2,-3,-2,-2,-24,0
4764798,-9,-1,-3,-3,-3,-2,14,8
4764798,3,-7,-3,-2,-2,-4,-5,-6
4778966,2,-6,-7,-4,-3,-3,-10,-3
4778966,-17,3,1,4,3,3,13,2
4786803,-2,-4,-1,-3,-4,-1,-13,-4
4786803,-5,5,2,0,-1,-1,7,2
4800962,-3,-15,-12,-3,-3,-1,-13,-3
4800962,1,-1,5,-2,0,0,-3,-1
4809961,0,6,-1,-2,2,0,-5,-3
4809961,-3,-5,0,4,0,2,4,-2
4815961,2,8,-4,-8,-2,0,5,6
4815961,-3,3,26,13,0,-3,-1,-1
4823993,-7,-19,-30,-19,-5,-2,-4,-2
4823993,8,-2,8,2,3,-1,4,-8
4838962,-17,0,-8,6,-1,-1,7,7
4838962,14,0,9,-7,-1,0,-10,-3
4854632,-5,4,0,0,-7,-3,-6,8
4854632,3,0,1,-4,3,0,-2,0
4860678,5,-5,-4,-10,1,2,10,-9
4860678,-1,1,-8,-6,-4,-5,-14,-2
4869423,-9,-1,0,10,-1,-1,12,-18
4869423,5,-3,4,-2,1,-1,-9,-1
4875674,0,7,7,8,2,0,-1,-2
4875674,1,-7,-16,0,-2,-4,-3,-2
4883431,9,0,-2,-12,-3,0,-14,-3
4883431,-4,0,0,-22,-4,0,0,-5
4898404,-1,-6,9,29,9,-4,0,3
4898404,-4,-23,-17,-5,-10,-5,-5,-15
4906727,-8,13,22,4,14,4,10,10
4906727,25,6,-15,8,-4,-1,-14,-4
4920398,-45,-2,28,-8,-5,1,11,-3
4920398,20,1,5,-7,-4,-3,-7,-14
4929392,18,3,-17,-2,-4,0,2,17
4929392,-35,3,-2,10,0,0,-18,17
4944448,14,3,-9,-11,-3,2,3,5
4944448,-10,-14,4,8,0,1,21,19
4945413,-8,8,7,-5,-5,-2,21,-33
4945413,0,-2,-3,-4,3,-3,-4,-2
4958204,13,-4,-14,-1,-2,2,-13,5
4958204,15,-12,-7,-21,-2,0,5,21
4966218,-12,2,0,14,-3,-4,-21,-12
4966218,-10,-1,0,3,-2,-2,9,10
4989213,-7,12,-4,-5,-7,-7,-9,-19
4989213,0,16,-5,2,4,1,8,21
4990212,-22,-23,-2,-11,-7,-1,-19,10
4990212,10,-8,3,2,-6,-3,5,2
5004512,-16,2,-3,-3,0,-2,-35,-19
5004512,0,10,-32,-4,3,1,36,2
5005213,0,2,12,4,-3,-3,6,-17
5005213,-9,-8,-7,-3,-2,4,7,-14
5018214,34,-16,-8,-3,-4,-4,-2,26
5018214,-10,25,13,9,3,-1,2,-24
5026426,-4,4,4,4,9,2,11,23
5026426,-41,-32,-11,-10,-10,-6,-10,-32
5040426,2,1,-9,0,2,3,33,11
5040426,4,12,2,-2,-4,-1,-15,-16
5049697,-6,0,-5,2,0,-1,16,7
5049697,-12,-1,15,3,1,-2,-25,12
5064471,13,-6,16,-6,0,2,31,-6
5064471,-30,-10,3,-2,-5,-2,-11,0
5065441,35,-4,-33,-19,-4,-3,-22,-10
5065441,6,11,4,-1,0,1,13,17
5078780,-1,6,-1,0,-5,-8,-37,-1
5078780,-13,-25,16,7,3,5,16,37
5086484,32,2,34,7,3,-2,-23,-42
5086484,3,8,-2,1,1,1,13,15
5100728,-15,-6,-6,-1,-2,-4,-27,-3
5100728,32,20,3,-4,-7,-4,-47,-1
5109779,-18,-2,-6,-4,-6,-1,16,18
5109779,13,-6,-6,0,0,-2,31,-7
5132836,-49,-18,1,0,0,0,2,0
5132836,7,-4,1,1,-1,-6,-20,-24
5133446,-11,4,-6,-2,-1,4,-3,-3
5133446,12,3,-14,-3,-1,0,21,12
5138446,16,1,18,0,0,1,29,9
5138446,0,-2,-10,-8,-6,-4,-2,-6
5146739,-17,-5,-10,0,-2,-5,-23,7
5146739,-1,-5,5,0,-1,-4,-23,-27
5160756,0,6,-2,6,1,3,8,0
5160756,13,-2,47,1,-4,-3,-10,2
5169981,1,3,-74,-10,0,1,-2,5
5169981,6,-3,9,0,-5,-3,-4,-8
5184951,2,-3,-10,0,1,-1,8,-8
5184951,-5,4,13,8,6,4,10,-13
5185756,-10,-9,18,0,-6,-6,-16,-4
5185756,0,6,-3,-2,1,0,10,12
5198757,2,-6,-19,-5,-5,-2,-11,-3
5198757,-11,2,-1,0,1,-2,5,-4
5206758,-1,-12,14,0,1,0,3,9
5206758,-3,15,-14,3,-2,0,-5,-9
5220872,17,-5,-14,-11,-5,-6,-6,-15
5220872,-5,-9,-18,-8,3,0,16,14
5229758,-1,7,13,5,1,0,2,-3
5229758,5,1,3,1,-9,-3,-7,0
5244746,-6,-7,2,1,11,4,0,4
5244746,-7,-9,-13,-5,-8,-3,0,-12
5245518,3,1,-1,-4,-7,1,30,14
5245518,3,-5,16,-11,2,-1,-3,1
5258519,2,13,-11,8,-4,-1,-9,7
5258519,-3,-3,-8,-3,2,-2,-14,0
5265995,3,3,14,3,5,4,-2,-10
5265995,-7,4,2,-1,-1,-1,-1,22
5279991,1,-9,2,11,3,-1,-2,-13
5279991,-7,-4,-13,-14,-5,-1,4,1
5289254,4,-3,8,13,1,-5,-14,-9
5289254,1,5,-7,4,1,1,-4,-14
5304260,-3,6,8,-1,-4,-2,3,12
5304260,-4,0,-6,-1,4,1,-2,-1
5304991,5,-7,2,-8,-3,-5,-2,10
5304991,16,-19,-10,-5,-2,1,1,-12
5318232,-22,-3,0,-6,-3,-3,-4,0
5318232,-4,17,-4,3,-5,-1,6,-4
5325206,1,-11,1,-2,-1,-2,-4,9
5325206,-2,3,6,5,2,-3,-9,-6
5340212,12,-1,-6,-3,-4,-3,-6,-3
5340212,-1,-5,-6,2,0,0,24,-2
5349843,-1,4,1,1,2,1,18,0
5349843,-10,-8,-1,-5,0,1,-9,4
5364460,1,-3,-7,-6,-4,-3,3,-8
5364460,-4,-7,-3,4,0,-1,-8,0
5365467,2,12,24,1,5,0,-7,-9
5365467,-2,-8,-15,0,-3,-2,-3,-4
5378234,-2,6,20,2,-3,-2,-3,2
5378234,0,-6,-6,4,-2,1,-4,-4
5385521,0,5,-16,-20,-9,-4,1,-3
5385521,-3,0,15,13,6,-4,-4,-5
5400521,-2,0,-4,5,0,0,-17,1
5400521,1,1,-1,-5,-5,-5,-2,-2
5409537,-4,3,-3,-4,-2,0,4,-3
5409537,-4,-7,-4,-7,-2,-1,2,1
5424538,3,-7,-6,-3,-2,-1,-6,-2
5424538,-3,7,2,0,-1,0,-3,-2
5425236,-3,-3,-2,-1,0,-5,-23,-11
5425236,-4,-9,-6,-4,-2,-2,7,-5
5438537,12,-6,-1,-6,-2,-1,28,-2
5438537,-4,2,-2,-1,1,0,-6,-8
5445761,-5,2,-9,3,-1,1,1,4
5445761,5,14,3,-1,-6,-3,-20,-1
5460271,-3,-3,-1,1,3,0,15,1
5460271,-4,-5,-2,-1,-2,-1,-4,0
5469271,6,-5,9,12,-2,-1,5,15
5469271,-6,-1,-1,-12,3,-1,-6,-3
5484278,-1,-1,9,-8,-5,-2,-5,2
5484278,1,-5,-37,-33,-5,2,-1,-3
5485274,-3,-3,12,31,4,0,0,-4
5485274,0,1,0,3,-2,1,1,1
5498534,-5,4,-3,-7,-3,-1,21,5
5498534,1,-1,7,2,1,-3,-7,-1
5505497,-5,-10,-8,-16,-7,-1,-4,-4
5505497,-2,12,-4,-3,0,-1,6,2
5520558,9,-14,4,6,7,-1,-33,-8
5520558,-7,12,-9,2,-3,-1,18,1
5536574,-4,-9,-10,-8,-4,-3,-1,-9
5536574,3,3,8,0,-2,-3,-32,-1
5544868,-14,6,-1,-6,-4,-1,37,-28
5544868,11,-10,10,7,1,2,2,9
5545564,-3,2,-4,-6,-4,-1,-3,10
5545564,2,-3,-9,-3,-1,-2,4,-3
5558597,-2,-1,2,0,-1,-4,-16,-11
5558597,1,20,6,4,3,0,-3,11
5565074,-2,-31,-4,-1,-1,-1,15,-3
5565074,-11,-21,-8,-6,-5,-4,-3,1
5581074,2,-5,0,-3,-1,0,-6,13
5581074,0,6,13,10,1,-2,-7,-9
5590073,5,12,8,-3,0,0,1,2
5590073,0,2,-5,-1,0,1,8,3
5612078,-5,1,-7,-2,-2,-1,-14,-1
5612078,-6,-9,5,3,0,-2,3,-3
5613077,0,-5,-9,-13,-7,-4,-10,-3
5613077,4,-3,1,3,2,0,27,2
5618082,-3,2,-2,2,0,0,-6,-1
5618082,-5,-5,-1,-3,0,-2,-6,-4
5625363,-2,4,-4,0,3,-1,-16,3
5625363,-6,-4,-1,0,-2,1,-6,-2
5640362,10,2,-8,-4,-3,-1,4,-9
5640362,-1,-10,2,1,-1,-1,-7,-1
5649585,1,3,-1,7,0,0,5,-5
5649585,0,26,17,-3,-5,-4,-1,-4
5663164,-9,-17,-14,-3,-2,-1,-8,3
5663164,9,-2,-4,0,0,0,9,4
5671170,-4,-13,-1,-1,2,-1,-4,-15
5671170,-18,-2,-9,1,0,-1,6,3
5678464,6,6,2,0,-2,-2,-8,6
5678464,-1,1,-1,1,-1,-1,-5,-3
5685172,0,4,3,-2,-1,-3,-19,0
5685172,3,-4,-5,0,1,1,21,0
5700451,-2,2,-2,-3,-2,0,15,5
5700451,-4,-11,-7,-1,-3,-4,-18,-4
5709452,-11,3,1,0,-2,1,17,-1
5709452,12,-3,-7,-7,-2,-4,-11,-6
5723472,-3,-3,-10,-4,-1,-2,2,7
5723472,9,5,18,1,-1,-4,-6,-11
5731169,-1,-1,-5,-5,0,1,-12,3
5731169,-8,-4,4,5,1,-4,-6,-3
5738469,11,3,6,-2,-3,3,21,2
5738469,-8,3,-2,-2,-1,-1,-13,-1
5745751,-3,-10,-8,-2,0,-3,12,-4
5745751,3,1,1,-1,-3,-1,-22,-1
5760484,-5,8,26,4,0,0,15,-2
5760484,-6,0,-15,-3,-2,-2,-2,-2
5769520,0,-9,-1,-1,-1,1,14,2
5769520,-6,-7,-3,-1,-1,0,-1,-3
5783521,-1,0,-1,1,0,-2,-19,-7
5783521,3,-4,-13,-3,-2,0,4,28
5791515,5,7,-1,-7,-4,-5,-12,-8
5791515,-3,-2,8,-2,0,1,6,-3
5798709,-4,0,-9,-3,0,-2,-11,6
5798709,1,3,1,-1,-2,-1,-2,-10
5805696,-4,-11,0,2,-1,0,25,-3
5805696,-3,-5,-3,-3,-2,-1,-16,-7
5820712,4,0,-3,-5,-3,-3,8,7
5820712,-8,-3,-5,-3,0,-1,14,-1
5829481,9,-2,-2,3,1,-3,-9,4
5829481,-10,2,2,-1,0,1,7,-2
5843780,-5,0,-11,1,0,-1,-14,-3
5843780,4,12,10,-1,-4,-5,-9,-8
5851517,-3,-10,-5,0,-2,-1,-7,0
5851517,3,-1,-4,0,1,2,7,3
5866019,-1,0,-13,-3,-5,-3,-28,-1
5866019,-7,-9,-4,1,-4,1,-13,-6
5867853,3,19,6,-5,1,2,18,4
5867853,4,-5,1,2,-1,-2,-4,5
5879809,-9,-4,6,-1,1,-1,-10,-11
5879809,8,-12,-22,-4,-2,-2,3,-1
5889027,-15,14,3,-4,-6,-4,-6,4
5889027,6,-3,-1,-4,-5,-3,1,-4
5903881,-3,0,2,0,2,2,-7,-4
5903881,-10,-7,6,2,0,-1,12,-2
5910810,18,2,1,2,0,2,7,-1
5910810,2,1,-16,-5,-1,-3,-5,9
5925811,-1,1,0,-1,1,-3,-11,4
5925811,-2,-8,5,-4,-2,1,13,-4
5926811,-6,4,0,1,0,-1,-1,0
5926811,-1,-2,-4,2,-1,0,3,-4
5939817,6,-4,14,0,0,-1,5,1
5939817,-8,-10,9,-4,-1,-1,-27,-3
5949355,-5,12,-2,0,-2,0,-5,-6
5949355,3,-4,-2,0,0,0,5,-1
5962839,-12,-3,-3,-3,-2,-2,4,4
5962839,3,3,0,1,-1,1,-3,-5
5970841,-18,-8,-4,-2,-3,-5,-14,-3
5970841,1,-1,6,-2,0,-1,1,-1
5986864,1,-6,-9,-2,-3,-2,-1,3
5986864,1,0,1,-1,0,-2,-1,-3
5987841,2,1,-3,1,1,1,11,0
5987841,-6,-7,-5,1,-2,0,-33,-7
5999846,0,-5,-4,-3,-1,2,37,4
5999846,7,-7,-26,-3,1,-3,-3,3
6009861,-5,7,8,-1,-3,-3,-10,-2
6009861,-2,4,4,-2,-4,-4,-19,-1
6023035,2,-6,-6,-1,-4,1,-5,-4
6023035,0,7,4,0,-1,-1,-8,1
6031845,-6,-15,1,-2,-3,-3,-6,2
6031845,-17,-9,-22,-5,-3,-1,10,-13
6046360,0,8,4,3,1,-2,-8,-10
6046360,-3,4,3,-1,2,0,12,15
6047862,5,0,-1,-1,1,-1,-8,-14
6047862,3,-11,5,1,-2,0,11,8
6059863,-5,-9,-3,-1,0,-1,-2,-6
6059863,-2,-2,3,-1,-3,-2,-3,-3
6068875,1,4,-6,-5,-6,-2,3,-2
6068875,3,6,5,0,2,0,0,0
6082873,3,7,-1,-1,-3,-3,-4,-2
6082873,-5,-9,0,-2,-2,-2,-12,-3
6090872,3,-3,-4,-2,1,2,9,9
6090872,-1,0,-2,0,0,2,17,0
6106171,1,-1,0,0,-1,-2,-25,1
6106171,-5,3,1,0,-2,1,33,-7
6107873,2,-5,-5,1,0,-2,-15,-4
6107873,-5,-1,3,-3,-3,-1,-2,3
6119960,-4,0,-4,-5,-2,-2,1,-1
6119960,-3,-6,2,1,0,-1,-2,-3
6128874,-3,2,-27,0,1,-1,-1,3
6128874,4,5,10,-1,-1,-3,-11,-2
6143875,-10,-3,-2,-4,-5,-4,2,-5
6143875,-2,-14,-16,-2,-3,0,-4,3
6151394,0,5,9,1,-2,-3,1,-3
6151394,-4,-2,0,0,0,-2,-1,-7
6166348,1,-13,-4,1,-2,0,0,4
6166348,9,7,7,-1,-3,-2,-7,-3
6167101,-12,-4,3,0,0,1,-11,-1
6167101,0,0,-9,-7,-3,0,35,-1
6180102,-8,3,3,5,3,-2,-15,-7
6180102,0,-7,6,1,-1,-2,5,1
6189330,9,-4,1,-3,-2,0,-5,1
6189330,2,2,-2,0,-3,-2,10,-1
6203333,6,-1,-4,-7,-2,0,-4,-1
6203333,-4,2,-1,4,2,1,-1,0
6211319,-1,0,-4,3,-1,-2,0,-5
6211319,0,-4,1,-5,-5,-2,-12,4
6226319,4,1,-3,1,3,3,-7,-6
6226319,-2,3,-2,-2,-6,-3,12,9
6227104,-3,0,7,-2,2,-2,-2,-4
6227104,-1,-6,-2,-1,1,-5,-8,-4
6242105,-5,-2,-1,-10,3,1,4,-5
6242105,-3,9,-2,6,-6,-3,-10,-5
6249333,7,-23,-2,-2,-4,0,7,12
6249333,12,2,-9,-2,-3,-5,-33,-4
6263476,-22,2,4,13,2,1,13,-12
6263476,-1,-8,-12,-14,-8,-5,-7,-4
6271512,3,16,11,-8,3,1,7,6
6271512,-2,0,-11,-15,-2,1,-4,4
6286512,9,-1,0,6,-5,-4,-8,-7
6286512,-3,-13,-4,11,3,-2,-17,-6
6287477,-23,1,1,-7,-5,3,18,-11
6287477,-5,3,18,9,5,-3,-8,19
6300484,4,7,0,-12,-3,-1,6,15
6300484,-5,-6,0,-6,0,2,20,2
6309545,8,-17,-6,7,-2,-4,-24,-26
6309545,14,1,-3,-3,-7,-2,12,1
6323546,-2,12,0,1,-1,-2,-20,10
6323546,11,10,3,-3,-1,-5,-3,-10
6331515,-23,-16,2,1,2,2,-13,-42
6331515,13,0,-5,-3,-6,-1,33,37
6346501,-1,-7,0,4,-2,-3,4,-13
6346501,17,2,0,0,2,-1,-8,26
6347501,3,9,-5,1,3,-2,-3,16
6347501,8,-7,0,2,-2,0,-22,-24
6360508,-59,-9,19,4,-3,-2,1,10
6360508,1,12,13,-1,3,2,-7,-1
6369524,3,6,-19,-13,-4,-5,-14,-14
6369524,5,1,-1,16,2,-1,0,15
6383565,21,2,-4,-3,-6,0,-4,-8
6383565,-18,1,6,1,5,-3,-8,-10
6391560,-2,-6,9,9,-1,-4,-8,20
6391560,-8,2,-18,-17,-5,2,10,-13
6407597,-15,-8,-10,-3,2,-1,-16,-10
6407597,12,-6,0,-6,-4,0,24,-9
6408531,20,-4,-7,-1,-2,-3,9,12
6408531,-23,-7,1,-2,-1,-4,-12,-4
6420531,15,6,-3,6,3,1,-10,-3
6420531,-31,0,-8,-4,-5,-4,-5,0
6429527,21,-13,2,-10,-2,2,-1,13
6429527,-23,6,-4,-1,-2,-2,2,-23
6443813,8,2,4,0,1,-2,-9,19
6443813,-8,-8,-4,-10,-5,0,-8,-8
6451745,8,9,11,3,-3,-1,1,12
6451745,-3,1,-6,4,2,2,2,-11
6466683,-19,-14,-13,-10,-3,-2,18,7
6466683,7,20,10,5,1,0,-15,-5
6467685,-2,-21,20,2,1,1,2,-6
6467685,28,18,6,-3,-2,-2,1,-16
6480439,2,-9,-31,-7,-1,-2,21,2
6480439,6,-13,-13,0,-2,0,-7,16
6489445,-30,0,-2,0,-3,-2,-1,-4
6489445,-1,-11,18,7,0,-5,-15,-4
6503720,25,14,-15,-6,-4,-2,4,-2
6503720,-6,-11,4,-2,-2,-1,9,-1
6519722,16,9,-13,-3,-2,-2,8,10
6519722,-2,-8,-5,-2,-1,-1,-14,2
6526691,0,-3,6,1,-2,-1,7,-10
6526691,-1,1,-6,1,3,-1,-20,-16
6527719,-10,2,-7,-2,-3,0,22,8
6527719,-7,-4,0,-1,0,0,11,15
6540445,0,-4,6,-2,-1,-1,3,-9
6540445,-4,-2,-1,1,2,-1,3,-7
6549462,-7,2,-1,-2,-2,-1,-5,-7
6549462,-16,0,1,-1,0,0,-3,-4
6564472,9,-2,-2,-3,-2,-2,-7,9
6564472,4,-3,-1,3,1,2,-2,1
6571511,4,5,-6,-4,-7,-3,44,1
6571511,-8,-1,6,-9,0,2,2,1
6586507,6,-14,-38,4,-1,-1,-15,-3
6586507,-5,12,21,-5,0,-2,2,3
6587539,-5,11,9,11,7,0,-14,-4
6587539,9,-9,-10,-4,-4,-1,1,-2
6600472,-3,-9,8,9,-2,1,10,-4
6600472,-2,-8,-14,-4,-2,-2,4,0
6608472,0,5,-12,-9,-5,-2,-16,0
6608472,-3,1,1,4,4,0,-10,4
6623479,5,-5,12,4,0,-5,-16,-24
6623479,-9,4,-10,-2,-3,1,23,5
6631509,4,-7,-5,4,-4,-2,-25,0
6631509,-20,-4,6,-2,-1,-2,9,0
6645487,11,-9,-3,-14,-3,-1,4,4
6645487,7,5,-21,-4,-5,-4,-19,-7
6654504,16,14,10,-10,-3,-1,8,-5
6654504,-9,-5,-6,4,-3,-2,-4,-1
6660489,-7,-1,10,6,3,0,31,2
6660489,-2,-2,3,-5,-2,-3,-1,0
6668538,3,-3,-17,2,-2,-2,-7,1
6668538,2,-2,12,-2,0,-3,-6,-4
6692697,0,5,-10,-9,-2,-2,-4,1
6692697,8,-8,-3,1,-1,0,8,1
6693534,-18,-3,-6,-4,-1,1,-1,-2
6693534,8,2,4,19,2,-4,-3,-17
6705500,-2,7,8,-5,-3,-3,-2,4
6705500,4,-9,-6,0,-4,0,1,-4
6714696,-10,-6,5,-2,0,-3,-6,0
6714696,5,5,-2,0,-4,-1,2,2
6720726,-3,2,14,-1,1,-1,-3,0
6720726,0,-4,-19,6,-1,-1,-5,-3
6728700,0,13,7,-3,1,0,-10,-3
6728700,-1,-21,-6,-10,0,-1,-2,2
6743537,-13,2,5,-8,-5,-2,-2,1
6743537,-2,-10,-3,0,-4,-3,0,-10
6751666,-2,2,33,29,9,0,-2,-5
6751666,15,14,-12,-9,-4,-5,-10,9
6765676,2,0,-4,6,1,1,-9,-12
6765676,-6,6,23,-3,0,-2,-10,-5
6774840,0,-7,-15,-8,-4,-2,5,-1
6774840,-2,-3,3,2,-2,0,-3,4
6780677,-4,1,-2,-4,-3,-2,-1,-1
6780677,-6,1,1,-2,1,0,5,-2
6787875,-1,-15,-9,-2,-2,-3,-9,-5
6787875,-5,-2,-4,-6,-1,1,3,5
6803758,10,16,5,0,-1,-2,1,3
6803758,-12,-11,0,-8,-2,0,-4,-1
6811827,0,-1,-4,1,3,-2,3,0
6811827,-2,1,12,-3,-5,0,4,-8
6834809,-1,4,-40,-3,-3,0,7,5
6834809,0,6,25,6,2,-1,-3,5
6835810,-1,-23,-11,-10,-7,-4,-2,-2
6835810,-3,1,0,11,6,4,11,-3
6849633,-13,-4,8,2,0,-5,-42,-4
6849633,19,3,-9,-16,-4,2,41,7
6850636,1,3,-8,12,3,-2,-9,10
6850636,6,-6,4,-7,-4,0,-1,-5
6862908,1,6,11,2,2,1,23,5
6862908,0,-4,-7,1,-3,-4,-18,-4
6870914,-20,11,-2,-8,-2,0,11,-2
6870914,-8,-25,-12,-6,0,-3,-4,2
6884909,15,0,18,1,-1,-1,2,-6
6884909,-8,1,-1,1,0,-2,-2,-5
6893915,12,2,-5,-5,-4,0,5,1
6893915,-16,10,-7,0,-4,-2,-9,-4
6908910,0,-11,-4,-1,-2,-2,2,1
6908910,-2,10,1,3,-1,0,1,-1
6909911,1,-8,-3,-3,-1,-3,-22,-4
6909911,0,-6,4,0,-1,-2,30,-2
6922912,-5,-8,5,-3,-2,0,-19,0
6922912,-5,0,-17,1,1,2,34,9
6930913,10,0,1,-3,-1,-3,-12,5
6930913,6,8,-5,-4,-3,-1,10,-4
6945438,5,-6,-1,-5,-2,0,11,-1
6945438,-24,-7,2,0,1,-2,-17,-6
6954459,-4,9,6,-4,-1,-1,2,-7
6954459,-1,-1,-5,-1,-2,-3,-14,-8
6968947,0,-4,-6,-2,-1,0,-1,3
6968947,0,-5,-2,-2,1,-2,-14,1
6969948,3,-2,5,-2,-2,-3,10,-9
6969948,5,8,4,-1,0,-1,-12,1
6982954,-12,-2,-5,-1,0,-1,2,-4
6982954,4,-16,-12,3,0,0,-2,-1
6990950,-6,-3,6,-4,-5,-2,5,-1
6990950,-4,0,7,1,0,0,-14,2
7005950,-1,10,-9,-4,-3,-2,13,2
7005950,-7,-12,1,0,0,-2,-4,-2
7013951,-2,-4,-4,0,1,0,-9,-5
7013951,5,3,-3,0,-2,-2,-4,2
7028956,0,-4,3,-3,-4,-4,-8,-17
7028956,-11,4,1,-3,-2,1,19,12
7029952,1,-2,-5,0,-1,0,12,2
7029952,5,5,2,-2,0,-3,-7,-6
7042952,-3,-13,-15,0,0,-3,-8,-1
7042952,11,8,-14,-1,-2,-1,-14,1
7051774,-12,-13,-5,-5,-2,0,5,-4
7051774,-7,-4,-17,-4,-2,-1,0,1
7074854,2,4,24,4,1,-1,-9,-1
7074854,10,1,1,-2,-1,-3,-5,-5
7074854,-10,-9,4,0,-1,-1,5,0
7074854,4,9,-8,-3,-1,0,-1,-3
7089854,-13,-10,12,4,0,-1,1,0
7089854,4,-6,-10,-3,-1,1,-4,-4
7089854,-3,10,3,-1,-2,-3,-6,-5
7089854,-2,-3,-3,-2,-3,-2,3,0
7103855,5,1,1,-2,-3,-5,-7,2
7103855,-9,-3,4,-3,-1,-1,7,5
7111069,3,-10,0,-2,-3,-5,-25,-2
7111069,-1,5,-27,-1,2,1,23,3
7126857,0,0,-2,-1,0,1,21,-5
7126857,2,10,14,1,-2,-3,-19,-4
7134857,5,-14,-23,-4,-1,1,16,-5
7134857,-14,-13,-4,-1,-2,-4,-11,9
7149876,2,-2,7,2,-2,-2,-4,-1
7149876,-3,10,8,1,0,-1,-2,-5
7150377,4,11,1,-3,-3,-2,0,1
7150377,-5,-13,-1,-1,-3,-3,-7,-7
7164172,-4,-3,-17,-7,-3,-2,5,3
7164172,4,-2,5,2,0,-2,-4,-8
7171177,1,9,0,2,2,0,-6,0
7171177,1,-2,3,-1,-2,-2,1,-1
7186178,-7,-1,-2,-2,-1,0,-8,1
7186178,-3,0,-1,0,-3,-2,5,0
7193458,-1,-1,-6,0,2,0,-18,-1
7193458,8,0,12,-1,-2,-4,-2,1
7209214,2,-3,-10,-4,1,2,36,4
7209214,2,-9,5,-3,-2,-1,3,-3
7210173,-1,6,-36,-1,-2,1,-4,-2
7210173,-16,-2,14,-1,0,-2,-26,-10
7223509,9,-1,4,1,-1,-2,8,9
7223509,5,-3,6,-2,-2,-1,3,5
7231181,-24,-10,8,2,1,2,7,-11
7231181,10,10,2,3,-1,-2,0,8
7246696,0,3,-10,-3,0,-1,-13,-5
7246696,-5,-9,-6,-1,2,0,-4,-1
7254696,4,5,12,0,-2,0,2,4
7254696,-3,1,-4,-1,-3,-1,4,-10
7269243,-6,-6,0,0,-2,0,-9,-4
7269243,1,0,0,0,-2,-2,-5,-2
7270208,5,4,4,-3,-2,-2,1,0
7270208,-1,-7,5,2,2,0,4,-3
7283244,-7,0,-6,-2,-2,-3,-26,0
7283244,-7,-3,-8,0,0,2,3,0
7291420,-3,2,2,1,-1,0,4,-2
7291420,0,-16,2,-2,-2,0,-7,0
7306468,-12,9,2,1,1,-1,-14,-8
7306468,2,3,6,-2,-6,-4,-5,3
7314437,0,-2,1,-5,-2,-2,0,-6
7314437,10,1,-11,-3,-1,-1,-9,-3
7329421,-1,9,8,2,1,-3,-2,-3
7329421,11,4,-8,-5,-3,0,1,7
7330210,-15,-16,-2,1,-2,-1,6,-2
7330210,0,5,1,-1,-2,-1,-5,-3
7343471,1,-10,-15,-1,-2,-1,2,1
7343471,-5,2,8,1,2,-2,-3,-3
7351688,4,3,2,-2,-1,-2,4,3
7351688,-1,-8,-13,-4,-1,1,7,1
7366451,3,6,5,0,-2,0,-3,-2
7366451,1,-10,-2,-2,-4,-2,-4,-3
7374739,4,-1,1,-2,-1,0,-6,5
7374739,-2,-3,-2,-3,-2,-2,3,-3
7389742,-10,-5,2,0,0,-2,13,-8
7389742,0,4,-4,3,-1,0,-2,-4
7390709,-3,-4,-6,-6,1,-3,-8,0
7390709,4,2,5,7,3,2,-9,3
7403741,-13,-4,9,-8,-10,-4,-6,0
7403741,-3,1,-25,-3,1,0,-4,-6
7411780,-1,-3,6,1,-3,-2,12,3
7411780,0,1,0,1,1,0,-5,-4
7426815,3,-2,6,0,0,-2,-10,-2
7426815,-6,3,0,1,-1,-1,-8,-1
7434816,-1,-6,-3,-1,-1,0,-4,2
7434816,-6,-4,-2,-2,-2,-2,-12,-1
7449749,7,1,-10,-1,0,2,13,2
7449749,0,3,10,0,1,1,0,0
7450248,4,6,-3,2,-1,-2,2,-2
7450248,-4,-9,-6,-1,-2,-2,4,-6
7464544,-3,-5,-3,-1,0,1,3,4
7464544,-1,2,-2,-2,-1,-3,1,-3
7471584,10,2,7,-1,-2,-2,-5,-3
7471584,-10,-9,-7,-2,-2,-1,-11,-3
7487545,9,4,-2,-2,1,0,14,3
7487545,-4,1,5,0,-2,-4,-5,-6
7494877,-11,-12,-2,-1,-1,1,-3,-5
7494877,-5,5,15,-2,-1,-1,-7,11
7509549,8,11,-19,-4,-3,-1,-6,3
7509549,-4,-9,-1,0,-2,-3,29,-11
7510546,-8,-4,-8,0,0,-3,-17,3
7510546,1,11,6,-2,1,-1,6,-2
7523845,-15,-13,-9,0,2,1,11,-4
7523845,0,9,6,1,3,1,-13,10
7531772,1,6,9,0,-8,-2,9,-1
7531772,-5,-5,-25,-17,2,2,16,-3
7546273,8,-2,6,16,0,-2,-11,-4
7546273,-7,0,-5,-9,0,-2,-13,-5
7554305,0,-9,-4,3,-1,0,9,1
7554305,5,10,-6,-15,-11,-1,-5,-1
7568644,0,-21,10,14,2,-3,-9,-2
7568644,-6,9,2,9,0,-1,-4,-1
7576645,11,-5,-5,-1,-4,-5,-12,-7
7576645,1,-2,-6,-5,-4,-2,15,-2
7583644,7,8,-8,0,0,0,-5,2
7583644,-12,-9,23,26,8,-2,-7,13
7591901,-1,2,-2,-5,3,-3,12,-23
7591901,-1,-21,-7,-4,-4,-3,-12,15
7606900,2,1,-1,-7,0,2,-22,-3
7606900,15,-7,-24,-3,-6,1,34,0
7614647,4,29,37,-9,-2,-1,-2,26
7614647,17,1,-3,9,3,-5,-21,-32
7628899,-51,-23,0,-15,-5,0,37,25
7628899,7,10,-17,-5,-10,-5,-22,-2
7636870,-16,-13,6,9,11,3,32,-2
7636870,0,9,3,-3,-1,0,34,0
7643903,-12,1,4,-1,0,-4,-36,-32
7643903,19,-2,-3,-11,-7,0,18,-8
7651747,13,3,-14,0,-4,0,13,24
7651747,-17,5,8,10,3,1,-10,5
7666460,14,-4,-7,-2,-2,-3,4,1
7666460,-26,-11,-1,-12,-1,-1,-1,-9
7674832,4,-5,-8,0,-6,-7,-48,-13
7674832,-21,0,18,6,4,0,3,-11
7688504,25,7,-3,-4,-3,0,-17,0
7688504,9,-8,-3,-6,1,2,6,-3
7696462,9,8,1,3,-2,0,-13,1
7696462,-6,0,-6,-3,-6,-5,-7,1
7703799,11,-18,-10,5,2,0,7,5
7703799,-40,8,35,-1,0,0,24,-3
7711836,-13,2,-15,-4,-2,-3,-19,-6
7711836,8,10,1,1,-2,-1,-1,-6
7726836,31,7,-1,-2,0,-1,-10,-1
7726836,-66,-23,-12,-3,0,2,14,10
7734503,34,13,0,-7,-5,-2,-19,-18
7734503,-17,-11,-2,4,1,1,42,-19
7748761,-22,-9,4,-2,1,1,-20,27
7748761,24,9,11,-6,-7,-7,-17,-35
7756586,-28,-26,-18,-4,-2,-2,12,-3
7756586,-3,5,5,5,2,1,-8,-2
7772868,11,15,-9,-5,-4,-3,-5,-11
7772868,36,-3,-11,0,0,-1,9,6
7772868,-62,1,2,2,1,1,6,-1
7772868,-17,-9,-19,-8,-6,-7,-28,-2
7785784,-34,-3,20,4,1,5,55,-8
7785784,24,-10,-12,-5,-3,-1,-22,18
7793784,10,-3,-9,-3,1,-2,10,0
7793784,-3,0,-7,-9,-2,-2,-9,5
7807785,-2,8,10,8,-1,-4,-34,-9
7807785,-9,-8,-11,-3,-2,-4,-6,-6
7815779,2,-4,2,1,0,6,36,-13
7815779,11,-18,9,0,-2,-1,-10,11
7831076,22,26,-1,-3,-4,-3,1,2
7831076,4,1,-15,-5,-2,-5,-18,-10
7831779,7,-5,6,-3,-1,-3,-33,6
7831779,5,3,-2,-1,-1,1,45,-5
7846505,9,-4,-5,-4,-1,-1,6,-3
7846505,1,-4,2,1,0,-2,-19,-1
7854509,-1,7,5,-2,-2,-1,-9,2
7854509,11,1,-24,-3,-3,-2,-5,9
7867822,-5,-3,5,1,-1,-1,8,-10
7867822,2,6,1,0,0,0,4,-1
7875815,-3,-12,-5,-2,-2,-2,-10,0
7875815,-8,-6,-3,1,-1,0,12,-1
7890816,3,4,-2,-7,-5,-3,0,0
7890816,1,6,-1,3,2,0,-7,2
7891816,7,0,9,2,0,1,4,0
7891816,0,1,-3,0,1,0,-14,1
7906816,-9,-9,-13,-8,-6,-1,-1,2
7906816,2,-5,3,-3,3,0,3,1
7913817,4,2,-4,2,0,-4,0,5
7913817,5,5,-3,-2,-6,-2,-4,-1
7927817,-9,-7,19,5,5,-2,-1,-7
7927817,1,1,1,11,3,3,-3,6
7936818,-2,-9,-33,-1,-3,0,4,-5
7936818,6,6,21,-17,2,-4,-11,4
7951524,-8,-6,-11,1,-6,-1,9,5
7951524,-1,4,-5,-13,-8,-2,-6,-3
7952538,-3,-4,5,7,0,-2,-9,-3
7952538,1,-9,2,-16,0,1,7,-3
7965938,2,12,-4,-4,3,-1,-32,10
7965938,-12,-27,-3,8,-2,1,26,-2
7974772,8,-5,-3,-17,-3,-5,-5,-3
7974772,-4,12,-2,5,-2,-1,-21,8
7988800,9,-14,-3,-13,0,-1,21,-17
7988800,-39,7,6,16,-2,-1,-9,3
7995939,5,3,-2,-4,-5,-4,-6,-11
7995939,-6,-15,1,6,0,-1,-13,-5
8010950,1,0,-6,-3,2,1,37,2
8010950,5,0,-2,-5,-1,-3,-11,3
8012748,4,0,3,-4,-1,2,12,4
8012748,2,6,2,16,0,-2,-9,-6
8025764,-7,-2,-1,-11,-2,-4,-12,-2
8025764,8,0,-4,-5,0,-1,6,-2
8041770,0,5,5,4,3,-1,-9,0
8041770,3,4,-7,3,-4,0,1,-1
8048695,-7,-15,9,1,-4,-1,-5,-1
8048695,5,14,9,1,3,0,0,-1
8056692,-1,-19,5,3,2,0,-1,-1
8056692,2,15,7,11,-3,-1,4,3
8071771,0,-2,-19,-5,-1,-1,2,2
8071771,-5,-6,9,-19,1,-6,-18,-8
8072771,-10,3,-7,3,-4,-3,-11,-6
8072771,-3,-15,-3,-9,0,3,27,7
8086795,-2,6,2,9,-5,-5,-15,-10
8086795,0,-1,-14,-9,-4,-3,-41,-8
8094793,-15,-3,-3,-7,-1,1,13,13
8094793,16,5,0,1,2,-1,-15,-18
8108795,-2,2,-8,-3,-7,-4,2,4
8108795,-4,1,-5,4,-3,-1,-4,-13
8116766,10,-8,5,3,0,-1,-11,-3
8116766,-21,-9,-4,3,1,0,1,1
8131730,1,-5,-3,0,2,1,-5,2
8131730,8,4,7,2,-2,0,2,-3
8132768,-10,11,-3,-6,-2,-1,2,-1
8132768,7,-19,-5,1,-1,-1,8,6
8146375,-1,11,-9,-1,0,1,-1,-1
8146375,3,3,9,3,-1,0,16,9
8154624,-2,4,-8,-1,-1,-1,-8,-5
8154624,-4,-7,-12,-5,-1,-2,-4,5
8167897,-3,-12,9,1,2,1,7,-2
8167897,-16,-1,-5,0,0,-3,-10,1
8175902,20,2,-11,2,0,0,22,8
8175902,-12,0,3,-6,-2,-1,-19,-12
8190899,-4,2,3,0,1,-3,-14,-2
8190899,8,-3,-5,-3,-2,1,14,-1
8191898,14,1,9,-1,-1,-2,-22,-6
8191898,-40,7,-5,-2,-2,-1,24,-9
8205939,14,-21,-7,1,1,-1,16,3
8205939,3,15,2,-2,-3,-2,-2,3
8213900,-5,-6,-4,0,-3,0,-1,-1
8213900,12,-17,9,-1,3,0,-9,1
8228898,-4,7,-6,-3,-1,0,8,-6
8228898,3,2,-2,-4,-2,0,6,1
8236899,-8,5,-2,2,-2,0,5,-1
8236899,6,0,5,-2,0,-2,-12,-7
8251718,-15,-7,-18,-6,-5,-2,-12,4
8251718,6,-15,-10,0,0,-2,1,3
8252420,-5,29,11,0,2,0,1,1
8252420,0,-8,-4,-2,-4,-3,4,-4
8265742,0,-3,3,-3,-5,-3,-8,-7
8265742,1,-8,4,1,-2,0,6,2
8273749,2,-8,-16,-5,-1,-2,-10,-4
8273749,4,-1,11,-3,-1,-3,1,-1
8288846,-2,6,-5,-1,-3,-2,-4,5
8288846,-2,-5,1,-1,-3,-3,-19,-3
8296032,-7,-3,4,0,1,3,29,2
8296032,7,7,-5,0,-3,-1,-9,2
8311848,1,-7,-2,3,1,-1,0,0
8311848,-9,-1,0,-1,-4,-2,-14,-1
8319850,11,-7,7,-8,1,-2,30,10
8319850,8,12,-28,1,-3,-2,7,6
8326847,-3,-2,8,-1,-1,-3,-13,-1
8326847,3,-6,-8,-2,-1,-1,3,-7
8334849,-16,-16,2,-4,-2,-2,-18,-8
8334849,3,-4,-5,0,-2,-1,-6,7
8348540,7,-2,5,-2,-2,1,7,-9
8348540,-6,0,-4,-4,-2,-1,-4,-2
8356548,-1,0,-4,0,-1,-2,3,7
8356548,1,-2,2,0,1,-1,3,5
8371847,-1,1,2,-4,1,0,-9,-6
8371847,3,-2,-2,8,2,-1,-7,5
8372556,-2,3,2,-4,-2,0,6,-4
8372556,-6,-9,-1,-2,-3,0,-1,-6
8387557,-9,4,-5,-4,-1,1,-11,0
8387557,11,12,3,-3,1,-1,13,8
8394878,-11,-18,-10,0,3,-1,-9,-4
8394878,2,5,3,-2,-4,-2,-8,-3
8408877,7,-7,6,0,-1,-1,-2,0
8408877,-23,-13,-27,-3,-4,-1,14,-3
8416810,2,16,-1,1,-3,-4,-12,10
8416810,4,-1,10,2,1,-1,-7,-8
8431560,1,4,-6,1,0,-1,20,-2
8431560,11,3,2,-3,-2,-2,-5,-8
8432560,-19,-7,0,2,-2,0,-1,-4
8432560,-8,-8,-5,-2,0,-1,23,-4
8446365,-10,3,0,1,1,-3,-5,10
8446365,15,0,2,-2,-3,0,17,3
8454365,-4,-1,-3,-2,-2,1,-5,-9
8454365,11,9,5,-3,-1,0,-9,3
8468875,-11,1,2,5,1,0,0,-5
8468875,13,-1,0,-6,-3,-3,-8,-2
8476876,0,-17,4,2,0,-1,3,-6
8476876,-24,-21,4,1,-2,1,28,7
8491877,-3,8,-4,-2,-3,-2,1,1
8491877,0,-6,3,-1,-1,-3,-18,-4
8491877,9,19,-3,-4,-1,-2,22,-2
8491877,6,3,-5,0,2,1,1,2
8506878,-3,-5,0,-2,-1,-3,-4,1
8506878,-12,-4,5,-1,0,1,5,2
8513880,-3,-5,2,0,-3,-2,-13,-3
8513880,-3,8,5,1,-2,-1,-4,-4
8528879,2,-15,-6,-4,2,-1,-8,-4
8528879,4,14,6,1,2,-1,-7,-1
8536879,6,0,5,-3,-4,-5,-21,-6
8536879,-8,0,-13,-3,-2,-1,7,5
8551410,4,6,8,0,-2,1,9,5
8551410,-2,-26,-9,1,-1,-2,-13,-4
8559407,-6,-7,4,1,3,-1,8,-6
8559407,10,8,0,-7,-3,-4,-1,1
8565914,3,7,1,2,-1,-1,-4,4
8565914,-25,-2,-6,0,0,2,12,-4
8573915,2,3,-9,-2,-5,-2,-21,-1
8573915,-3,0,11,0,0,-2,-11,-1
8588132,2,-4,0,-1,-3,-1,2,-6
8588132,-3,-2,2,-1,-2,-3,-1,0
8596117,4,5,2,-3,-2,-2,-2,6
8596117,4,4,0,-1,-1,0,-5,-5
8611176,-5,-3,-1,4,1,1,11,-4
8611176,4,-1,-3,-2,-3,-2,-5,-1
8619067,-4,1,-2,-2,-2,-4,9,-5
8619067,8,-6,-8,-2,-2,-1,-16,14
8626178,-7,-6,1,-1,-3,-2,1,-13
8626178,1,7,17,4,-1,2,11,3
8634179,-3,-21,-33,-4,0,-1,-12,-5
8634179,-5,5,29,7,0,-2,-2,-2
8648179,-7,1,-19,-10,-1,-2,-20,1
8648179,5,6,2,-3,-1,-2,-4,-1
8657679,-13,5,5,3,1,4,-4,10
8657679,1,-6,2,-2,-1,-1,-6,-5
8671161,2,-3,2,-4,-2,-2,5,-4
8671161,1,-3,-5,-1,0,-1,9,-1
8679130,5,8,2,1,-2,-1,-10,-2
8679130,-6,-9,-14,-6,-2,-3,-1,-6
8686089,1,1,5,1,-1,-1,-2,-3
8686089,-1,-10,-9,-2,-1,-3,-8,-2
8694423,-1,-2,4,2,1,-2,4,-2
8694423,-7,4,-4,-2,-4,-3,-6,-3
8708317,-1,1,-4,-3,-4,-4,0,-3
8708317,-1,5,-6,-1,0,2,-1,-1
8716342,-5,-14,5,0,-2,-3,0,-3
8716342,1,10,-3,-3,-4,-1,6,-5
8731092,-3,-18,-9,-4,1,-1,-5,6
8731092,-6,8,1,0,-1,-2,1,-6
8739454,1,1,4,1,1,0,3,-1
8739454,-1,5,-3,-1,0,-2,-14,-3
8754680,9,-9,-25,-5,-4,-2,-11,1
8754680,-21,-3,2,-1,-2,0,11,-1
8755863,4,1,2,-3,-2,-3,-3,-1
8755863,4,3,-10,-6,-3,-3,0,-4
8767983,-19,-5,7,0,-3,-1,-11,4
8767983,1,-9,-4,0,-3,0,13,3
8775977,4,-7,-7,-6,-1,1,1,-2
8775977,0,-4,-6,4,1,1,4,-3
8791012,-7,9,12,6,1,-2,-12,-10
8791012,8,1,-6,-4,0,0,-2,6
8799976,3,6,1,-2,-2,-1,2,-6
8799976,1,-8,-3,-1,1,2,0,-3
8813978,-5,-7,-4,-2,-3,1,4,-2
8813978,6,1,-2,6,-1,-3,-12,-3
8814978,6,10,5,-10,2,-2,8,-7
8814978,2,-17,0,0,-1,2,-3,10
8828263,4,-6,-3,5,0,2,18,-2
8828263,-9,2,-3,-2,-5,-2,-2,-4
8836264,-6,-5,-1,-3,-2,-1,-8,-2
8836264,10,16,9,-5,6,-4,-13,-5
8851483,-3,-2,2,0,-1,-2,5,0
8851483,3,-10,-1,-9,-7,-3,-9,1
8866227,2,6,-8,-4,-8,0,-7,-1
8866227,8,-11,-1,16,3,1,5,-5
8876193,2,16,35,22,11,3,21,6
8876193,-1,-3,-19,-20,3,-1,-25,-8
8877194,5,-3,-3,-4,-1,2,41,3
8877194,-14,-9,-10,-19,-9,1,10,1
8888494,21,20,-7,10,-4,-3,-3,4
8888494,-15,-12,7,1,5,1,-14,7
8896272,-41,-2,-7,-11,-9,-5,3,10
8896272,0,-16,-13,38,7,-3,-18,-37
8911558,5,2,5,-12,-11,-1,-1,16
8911558,23,9,13,-29,-4,-1,-9,5
8919529,-14,-25,-4,-4,13,2,-16,-9
8919529,-39,7,-3,0,-7,-3,24,-12
8934202,20,-1,-3,21,11,-1,-15,-6
8934202,-44,-2,-20,-37,-22,-4,21,18
8935196,23,10,12,52,11,-4,-24,-6
8935196,18,4,2,-22,-13,0,-2,7
8948207,-11,-7,-3,-12,-7,-4,-36,-19
8948207,-12,4,2,9,7,3,59,10
8956207,40,6,-4,-5,-2,-4,1,13
8956207,-68,3,4,6,5,-3,-34,-9
8971509,34,6,-7,-15,-6,-2,66,6
8971509,-12,-38,-1,7,-2,-2,0,-7
8979479,-10,-6,-4,21,3,-4,-32,-8
8979479,38,9,4,-23,-9,2,4,5
8993478,-11,4,-3,-11,1,0,-14,-7
8993478,-21,2,3,11,-1,-5,-41,-16
9002218,11,0,11,-1,-2,4,44,5
9002218,-1,1,-15,-8,2,0,1,6
9017549,-35,-20,12,-10,-6,-7,-8,-3
9017549,71,28,-11,9,1,-4,-48,-17
9019254,-22,-8,12,-6,-2,1,-11,6
9019254,-22,8,1,0,1,-5,2,4
9031220,53,8,-1,2,0,0,-4,-8
9031220,-97,-17,20,13,0,-6,10,-23
9040220,43,27,6,-10,-7,0,-7,11
9040220,21,-16,4,1,-2,-3,16,30
9053793,-45,-20,-5,0,3,4,-4,-9
9053793,42,-5,-8,-7,-3,-3,-7,-14
9062272,4,-2,-12,-8,-5,-2,10,23
9062272,-12,5,1,0,2,-3,4,3
9068279,-1,9,-15,-6,-2,-3,-11,0
9068279,13,-1,1,9,2,4,1,2
9077280,-23,-8,-8,-7,-4,-3,-16,-14
9077280,21,0,-3,-1,-6,-2,5,-4
9091351,-10,-9,1,-3,0,-3,-4,3
9091351,9,2,-3,3,0,2,15,4
9100279,-6,0,-1,-3,-2,-4,-15,-12
9100279,0,-3,4,2,3,4,-1,0
9113280,-11,-4,-7,4,0,-2,0,-5
9113280,-4,4,0,-6,-4,0,3,6
9122530,-1,-6,-10,0,0,-1,20,-6
9122530,4,0,2,-4,-2,-1,-7,-4
9128530,-7,-1,0,-5,3,-1,7,6
9128530,17,10,-3,-10,2,-4,-6,2
9137493,-13,-17,12,11,-1,-1,-1,2
9137493,7,-6,-18,-3,-6,-5,-1,-7
9151790,1,-2,-3,6,2,-3,-18,-1
9151790,5,3,-3,-7,-2,0,29,5
9160328,-19,8,3,2,0,1,-6,-7
9160328,-1,-1,-2,-1,-4,-1,-1,-6
9173637,-6,-6,1,-7,-8,-4,-36,3
9173637,-1,-2,3,7,8,6,30,-4
9182302,16,-2,-11,-25,-8,-1,0,-1
9182302,-4,8,8,24,3,-1,-8,4
9197304,-6,-15,-7,-6,-4,-1,-4,-6
9197304,1,-4,6,7,0,-3,-13,-10
9199303,24,-1,-11,-4,-3,1,20,-7
9199303,-3,9,13,-6,1,1,-16,-6
9211374,5,-9,-1,-2,-2,-3,1,1
9211374,-19,-6,-4,5,1,0,-5,2
9220303,-4,4,-4,3,0,-2,-5,-6
9220303,-7,-3,-2,-9,-8,-5,0,-2
9233345,3,8,-14,-7,-3,0,3,-2
9233345,4,0,14,13,3,-2,-16,0
9242340,-10,-2,-3,-5,-2,-2,2,-3
9242340,-3,-5,-11,-2,-4,-3,0,0
9248310,-4,-4,-1,-5,-3,0,6,1
9248310,2,3,9,5,3,1,5,3
9257311,-9,3,-3,-2,1,0,-9,-6
9257311,8,-9,-19,-22,-4,-2,16,2
9271321,-1,5,8,-4,-6,-4,5,-4
9271321,5,-6,-8,11,-4,0,-1,2
9280322,-11,1,9,20,10,1,-12,-5
9280322,0,-4,3,-2,4,2,-11,-2
9294358,7,7,-2,-1,-5,0,0,3
9294358,-12,-13,-6,-16,-10,-4,0,1
9302359,-9,-14,-19,-13,-8,-3,3,-4
9302359,4,4,7,8,4,5,18,11
9308358,-5,2,-2,-2,-2,0,4,1
9308358,10,6,-2,0,-3,-3,-10,-3
9317328,-2,7,-3,-4,-5,-3,-4,0
9317328,-2,-4,5,1,3,-3,-21,-6
9331421,-9,1,16,14,4,1,22,1
9331421,4,0,-12,-9,-3,-3,-9,3
9340570,1,-12,-4,3,-6,-4,-4,-4
9340570,0,-1,2,12,8,2,0,1
9353575,-5,0,-1,0,-4,-5,-8,-5
9353575,-4,1,-2,0,0,-1,3,-5
9362332,-1,1,7,-2,-1,0,-3,2
9362332,0,9,5,-3,-2,-2,0,-3
9368590,1,3,-12,-5,-3,1,1,-3
9368590,-10,-26,4,7,1,-2,-2,-6
9377596,-4,-11,-1,-13,-2,-3,1,-2
9377596,0,2,-4,-15,-5,-5,-26,-4
9391627,-1,4,2,15,3,5,79,13
9391627,11,22,3,4,4,1,-19,1
9400604,-9,-4,0,-3,-7,-8,-41,-10
9400604,-3,-18,-15,-2,-2,2,33,4
9413349,3,10,9,-16,-3,-2,-8,-5
9413349,-6,-6,-6,-6,-3,-2,-5,-4
9422595,-3,4,10,5,2,0,1,2
9422595,-8,-8,-26,-8,-5,-4,-24,-6
9428602,17,9,2,0,2,-2,-17,3
9428602,-8,-16,-8,1,-2,1,12,-3
9437599,2,-11,-4,-3,0,0,-5,-4
9437599,-4,6,26,6,0,0,8,4
9451356,-11,-5,-8,0,1,1,-7,-5
9451356,9,7,-2,-4,-2,-3,0,2
9460363,14,14,0,-4,-4,0,8,5
9460363,-12,-7,9,3,1,-3,-2,-8
9473719,-4,-9,-1,2,0,0,-11,0
9473719,-2,10,-4,-8,-5,-6,-1,4
9482567,-8,-4,1,1,0,-1,2,-3
9482567,4,-2,2,3,0,1,6,4
9488756,-5,-3,-10,-5,-1,-3,-49,-12
9488756,-2,-4,-6,-3,-2,1,52,-8
9497722,10,3,4,2,1,-1,11,13
9497722,1,1,-6,-2,-4,-3,-9,-13
9511842,3,-7,-6,-3,-2,-1,-7,-6
9511842,-3,-1,3,-2,-2,-1,-12,0
9520565,-3,8,0,0,0,1,3,1
9520565,0,-5,-4,-2,0,0,4,-3
9533565,3,-12,-5,-4,-1,-1,-1,-1
9533565,-14,9,10,1,0,0,-1,0
9542565,-4,-2,8,2,-1,-2,-1,-2
9542565,5,10,-8,0,-3,-3,-13,-3
9548573,-8,-5,-9,-2,1,0,20,3
9548573,5,6,1,1,0,2,-9,1
9557574,-2,-2,-6,-5,-1,0,0,-3
9557574,-6,-17,10,1,0,-1,-17,5
9571836,-8,1,-20,-3,-3,1,48,5
9571836,12,-1,-5,-5,-4,-4,-17,-7
9580587,0,1,10,1,1,1,8,-1
9580587,1,25,-5,5,2,0,3,2
9593588,-4,-11,8,1,0,-3,-26,-2
9593588,-2,-13,-7,-6,-1,-2,-6,-4
9602588,-1,2,-5,2,0,-1,4,-3
9602588,-2,-6,-4,-6,-6,-3,1,-1
9608805,0,12,2,-1,1,0,-8,0
9608805,3,5,-1,4,2,0,5,3
9617588,2,-10,-9,-1,-2,-3,-10,-1
9617588,2,-1,2,-1,0,1,3,-4
9631590,-23,-15,0,-4,-5,-4,5,0
9631590,2,-4,-2,-4,-3,-2,-11,-8
9640590,-6,2,-7,-2,-2,-2,-36,7
9640590,6,-1,-2,-1,1,7,86,0
9653793,-8,-10,-1,-1,-3,-4,-28,-10
9653793,10,-3,5,0,-2,-3,22,4
9662102,2,-3,-7,3,2,0,-27,-4
9662102,3,7,-2,1,-1,-2,15,1
9677823,2,-2,14,-2,-2,0,-5,1
9677823,-12,-3,-21,-2,0,-1,-7,-3
9679626,3,9,-3,-6,-2,-1,4,-5
9679626,-2,-14,3,-2,-3,-3,-18,3
9700792,4,11,3,5,2,1,-4,-6
9700792,-4,-5,-1,-7,-2,-1,-14,5
9702627,-3,-3,1,4,2,1,14,-2
9702627,-3,-5,-8,-4,-3,-2,-15,4
9713628,15,10,5,-1,0,-2,-1,2
9713628,-10,0,4,2,-1,-1,-5,-9
9721787,-4,-8,-8,-7,-5,-4,1,3
9721787,-3,-1,1,-1,-2,-5,-31,-5
9737784,-1,1,-11,2,2,4,10,-3
9737784,12,-5,2,-3,-2,0,1,9
9738629,-14,10,9,1,-1,-2,-1,-7
9738629,-1,-9,-5,-4,-4,-3,-33,-2
9751441,1,-2,-3,-2,-2,-1,13,1
9751441,-4,-5,-7,-3,0,-3,4,1
9760640,-1,7,-4,-3,-1,2,4,-3
9760640,0,6,14,0,-2,-1,-4,2
9773451,1,-14,-26,-2,0,-2,-1,-3
9773451,-5,0,3,0,-1,-1,-1,1
9782147,5,-15,-4,-4,-3,-3,5,3
9782147,0,10,1,0,1,1,5,-6
9797148,-1,3,4,0,-3,-2,-6,-1
9797148,-4,2,4,4,2,-1,-5,-1
9799149,-3,-3,-2,-1,0,0,3,0
9799149,-2,-5,-9,-3,0,-2,1,-4
9811513,-3,-3,14,-2,-1,-3,-9,0
9811513,6,10,-17,-5,-3,-2,-7,-6
9820162,2,-4,9,-2,-1,-1,-10,-7
9820162,-8,-1,-5,3,1,2,34,1
9833157,12,-2,1,-3,-3,-3,9,1
9833157,6,-4,1,1,0,2,22,5
9850182,-7,5,-6,-3,-3,-4,-21,-7
9850182,0,-18,-5,-1,-2,-3,-25,-4
9857752,-6,14,3,0,0,1,11,-2
9857752,3,-9,-1,-5,-2,-3,-11,-2
9859183,1,-1,0,13,0,-1,11,2
9859183,0,7,-4,-2,-3,-3,-21,-3
9870894,-3,-8,6,0,-3,-1,9,1
9870894,-4,2,-1,-3,-1,-1,-7,-3
9879853,-7,1,5,-9,-2,-2,8,1
9879853,4,-8,0,1,0,-3,-4,-2
9893853,-3,1,-10,-2,-1,-1,-10,1
9893853,-3,-5,3,-2,-4,1,11,0
9901853,1,-4,-4,-4,-3,-2,4,-1
9901853,-2,1,-6,-3,-2,0,1,4
9917066,-12,2,3,0,0,-2,-18,-9
9917066,15,-3,-6,3,-1,1,1,5
9918854,1,-3,-7,-8,-4,-1,5,0
9918854,0,-3,2,3,-2,-2,-2,-1
9931856,2,5,-1,0,-1,-2,-26,-5
9931856,-3,-4,4,0,1,-1,1,-3
9939855,-19,-7,-1,1,-2,-1,1,-5
9939855,8,2,-5,-4,0,-2,0,-1
9953597,-1,-7,10,-1,1,-1,-1,4
9953597,3,6,-17,-2,-3,-1,-2,0
9962399,-5,-2,1,0,-1,0,-2,-1
9962399,-2,2,3,0,-1,-1,17,2
9984877,-2,-4,-7,0,-2,0,-8,0
9984877,-5,3,8,-2,-3,-3,-15,1
9986872,-1,-1,-4,-3,0,1,22,-8
9986872,3,-1,-2,7,2,2,-3,-1
9991138,-4,6,4,-3,-4,-6,6,2
9991138,-3,-1,2,2,0,1,5,1
9999873,-1,-12,3,1,-2,-1,2,2
9999873,-1,-4,-5,-7,-1,0,-6,-4
10012873,12,-3,-9,-4,-3,-3,9,-3
10012873,-17,12,2,-1,-4,-3,-11,-4
10021873,-4,-18,-9,-2,-1,-2,-7,0
10021873,12,11,0,-4,-2,-3,2,1
10036089,5,0,7,-1,2,0,-8,-3
10036089,-19,-16,-6,3,-3,-4,-5,-3
10043090,10,11,-1,-10,1,2,-3,2
10043090,-8,-14,8,3,1,0,4,-2
10051613,3,8,0,-2,-2,-1,-2,-3
10051613,4,5,3,1,-2,-2,-2,-4
10060383,-1,-1,-4,-2,-3,-2,-3,2
10060383,-6,1,-7,-9,-3,0,5,2
10098139,-2,-5,0,17,2,2,-4,-7
10098139,-2,-8,2,-11,-1,-2,-6,1
10099891,17,9,1,-2,2,-1,22,1
10099891,-8,-1,-1,5,2,0,24,-1
10101156,-8,-4,-4,-8,-5,-2,-8,3
10101156,-1,-11,-6,-3,-2,-2,-9,-4
10104926,5,6,0,3,-1,-1,0,-1
10104926,-10,-3,8,0,3,1,-1,-7
10110897,-2,1,-15,-5,-4,-2,-2,2
10110897,-3,1,4,-10,-5,-3,-7,-5
10126892,12,2,1,2,1,1,6,3
10126892,-5,-17,-6,-1,-2,-3,-12,3
10133111,-7,-4,4,-7,-6,-3,-4,-4
10133111,3,10,4,-1,-1,-2,-12,-2
10141893,-4,1,-6,-4,-1,0,-5,-6
10141893,5,-2,2,11,0,-3,-13,-7
10156615,6,3,9,-15,0,0,22,10
10156615,-23,-9,-11,14,-2,-3,6,-15
10164905,-5,-2,2,2,-1,-1,2,2
10164905,-1,2,-1,-4,-5,-1,-2,1
10171171,0,8,-9,0,0,0,-16,-2
10171171,12,-13,1,-4,-2,-1,9,-4
10179907,-39,-7,-4,-2,0,-3,-12,0
10179907,3,1,-9,-1,-5,-3,-16,-8
10193120,-1,-6,3,-8,2,-1,17,-4
10193120,12,4,5,6,0,0,1,27
10201908,-7,-4,4,3,-3,-1,-10,-4
10201908,16,3,-6,-24,-2,-2,-18,0
10216240,-12,8,-1,21,2,-2,-8,-2
10216240,6,-23,-7,-5,2,-1,8,-7
10224909,-1,-10,-1,7,-4,-5,-25,4
10224909,-16,13,4,-2,1,2,15,3
10230910,14,-4,-3,2,1,1,-15,-5
10230910,0,5,-1,-5,-1,0,10,0
10239910,-11,1,-6,-1,-3,-4,-21,-4
10239910,12,-10,-1,-3,-3,-4,-9,-5
10254425,-23,-5,-9,10,4,2,4,14
10254425,5,15,17,1,-1,0,1,-10
10262422,-4,11,5,4,3,2,-2,-1
10262422,3,-7,-9,-5,-3,2,29,0
10276438,-8,-17,-12,-3,-3,-5,-4,-2
10276438,7,7,18,6,9,5,41,6
10285432,11,8,-19,8,-3,-4,-9,0
10285432,-7,-7,2,-3,0,-3,-7,-5
10291773,10,-17,-6,-3,-8,-4,-7,-5
10291773,-17,0,1,-2,-1,-2,-23,6
10300433,20,2,10,-6,2,2,25,-6
10300433,-20,7,-4,-1,-3,-2,2,4
10313434,-17,-2,1,-11,-4,-3,-12,-9
10313434,-5,-1,-9,1,-3,-3,-1,-3
10322434,7,-9,-9,-8,0,4,20,4
10322434,16,13,3,5,-1,-2,12,0
10336723,-1,-1,7,-2,-4,-1,6,7
10336723,-5,3,-5,-2,0,-2,-14,-5
10345475,-7,-18,-7,-1,1,-2,22,0
10345475,17,-3,-1,-6,-1,0,-12,-10
10351752,6,6,-2,-3,-1,-1,19,-1
10351752,16,1,-17,0,4,4,0,0
10360445,19,-8,-1,-9,-6,-4,-16,-9
10360445,-14,-1,10,6,-2,-5,-23,3
10373749,8,-14,-5,-7,4,3,15,-3
10373749,-4,2,-11,-6,-9,-7,-22,1
10382456,-6,0,1,-4,-3,-6,-39,-10
10382456,-9,-5,-6,-5,-3,-1,27,14
10396456,33,16,13,10,3,3,2,-7
10396456,-28,-19,4,-4,1,0,28,-2
10405456,13,1,-7,-3,-3,-1,-5,-15
10405456,-32,19,9,2,-1,-5,-51,-3
10411745,-6,-15,-10,-8,-1,0,43,6
10411745,-22,-7,-3,-1,-4,-2,-14,-7
10420458,-4,-10,0,-3,-1,-3,-10,-1
10420458,-7,-17,-18,0,-1,0,10,-5
10433741,14,2,-4,-1,-1,-5,-19,-14
10433741,-13,15,13,4,3,4,21,23
10442458,6,7,22,-1,-3,-3,2,0
10442458,15,-2,-4,2,0,0,-1,3
10456968,-8,4,0,-4,-3,-3,-25,-10
10456968,13,-7,0,-3,-1,-3,-29,-14
10465476,-6,7,4,-1,-1,4,60,20
10465476,-15,-2,0,-3,-1,1,26,-14
10471483,-7,-1,0,2,-3,0,-15,-2
10471483,7,3,6,-3,-3,-3,-11,-5
10480478,-9,1,-4,1,2,1,-5,4
10480478,-6,-11,-7,-2,-3,-2,-11,5
10493742,-10,8,5,1,1,-1,-4,-2
10493742,9,0,-1,0,0,-1,9,-3
10502478,-6,-4,-10,-3,-5,-1,-11,-5
10502478,8,0,3,-4,0,-2,9,0
10516479,-6,-2,-4,3,-3,-3,-10,5
10516479,-1,-4,-18,-39,-11,-3,-8,-3
10525479,-5,0,8,36,4,-2,-4,-4
10525479,-3,6,11,4,12,1,1,-2
10531480,-3,-3,-1,-13,-1,0,12,8
10531480,4,-2,-2,5,-4,-2,-8,-2
10540480,0,-12,-15,-14,-11,-4,0,2
10540480,8,2,-7,-25,-11,-4,-10,2
10553490,-3,3,7,22,5,-1,-14,0
10553490,4,-3,-2,-9,6,2,25,2
10562491,-5,3,-2,-11,-6,-5,2,-6
10562491,23,-11,-9,5,-3,-1,-10,6
10576744,-15,4,7,-2,-2,-1,-7,-3
10576744,-4,0,-10,7,-2,-3,-26,-4
10585501,0,-3,6,1,2,3,36,10
10585501,-7,-3,-3,-2,-4,-2,-6,-11
10600502,-6,-16,-13,-6,-4,-4,-6,0
10600502,5,-2,1,7,1,2,18,-11
10602501,1,1,3,-6,0,0,-17,2
10602501,8,9,9,5,-1,-1,4,-3
10613502,-6,-8,1,-4,-3,-2,5,-3
10613502,-12,-16,0,6,-3,-6,-11,-4
10622502,-1,2,-10,-8,-1,-1,-4,-2
10622502,-8,2,6,4,-3,0,8,0
10636706,5,12,-4,4,-2,-2,-5,4
10636706,3,1,-3,-8,2,-2,-7,-2
10652496,-3,-3,3,-4,0,0,-4,-4
10652496,-5,-1,-4,4,1,-1,-9,0
10660271,-1,-2,-8,-18,-3,0,4,-2
10660271,4,1,1,9,-4,-3,4,3
10662770,-5,5,-3,-3,2,0,-8,-4
10662770,-3,-15,-8,0,-1,-1,3,-3
10672996,10,4,-7,-2,-5,0,3,2
10672996,-19,-3,10,12,7,-1,-5,-4
10681779,-8,7,2,-4,0,0,-3,-3
10681779,11,-10,-9,1,-3,-4,-30,-3
10696781,4,-3,8,-9,-2,3,16,0
10696781,-1,5,-8,-2,-5,0,-5,3
10704781,-1,-2,4,2,-2,-5,-8,-9
10704781,-2,-2,-1,-5,0,0,-5,4
10720780,-3,4,-2,2,0,-3,-8,-4
10720780,2,-6,4,2,0,0,-4,1
10721780,-5,-5,-3,-1,-2,1,-9,-7
10721780,-4,2,0,-3,-1,0,10,-1
10733781,-3,-4,-1,3,1,-3,-7,-1
10733781,0,-9,-4,-3,-4,0,5,0
10741782,3,-1,-5,-4,-2,-2,-5,1
10741782,-7,4,0,3,0,-1,0,-2
10756342,-1,1,-8,4,0,0,3,-2
10756342,0,7,2,1,-3,-3,-7,-2
10765805,-1,-5,-6,2,2,1,5,5
10765805,-2,0,8,2,0,0,7,-4
10779805,-1,-9,-1,5,1,0,-3,-2
10779805,-1,6,-4,-5,-2,-1,0,-8
10781805,5,0,-5,-5,-5,-4,-38,-1
10781805,-2,-1,1,19,1,4,64,3
10794806,-1,-2,-3,-9,1,0,-1,1
10794806,2,3,-5,5,2,-1,-10,-3
10802807,-3,4,2,-6,-1,1,8,4
10802807,-5,-14,-7,-6,-6,-5,-21,-11
10816806,5,10,4,-12,-2,-3,-1,1
10816806,5,0,2,0,0,-1,5,2
10824806,-7,-11,-7,-1,-2,-1,-4,-4
10824806,3,-5,7,-5,-4,0,-7,3
10840807,-2,8,-1,1,-2,-1,5,0
10840807,-5,4,-3,-5,-3,-2,-8,0
10841844,1,5,2,1,0,-2,4,-1
10841844,-5,-9,-5,-6,-2,-1,-5,2
10853317,1,0,2,2,-1,-2,-2,-1
10853317,0,-6,0,-3,0,1,1,0
10862321,4,-6,-5,3,-4,0,1,1
10862321,-9,5,-6,2,3,0,-5,0
10876828,-6,-3,2,-7,-3,-5,-27,-3
10876828,2,-2,-3,-1,-2,-2,47,5
10884829,4,-1,1,-3,0,1,16,2
10884829,-3,4,-6,-6,2,1,-3,1
10900828,-3,-8,3,2,0,-2,-5,-5
10900828,-2,1,-2,-1,-3,-5,-18,-2
10901829,-2,0,3,2,-2,-2,-1,-5
10901829,0,2,-3,-7,2,0,-4,-2
10912837,13,-3,0,5,0,0,-2,2
10912837,-19,-1,-5,-4,-1,1,6,-4
10921830,4,3,6,-2,0,-3,0,-9
10921830,-5,-19,1,7,1,0,-6,-1
10936165,-2,-4,-7,-3,-1,0,-1,-3
10936165,2,-4,-6,-4,-1,0,-10,-2
10944831,-2,4,0,-1,-4,-2,-3,-1
10944831,6,6,1,-3,-3,-4,-2,8
10960342,-4,-4,-1,3,1,2,13,-3
10960342,3,2,-1,-3,-2,-3,-15,2
10962343,-5,-5,-3,1,0,-1,12,4
10962343,8,-2,-2,-3,-4,-3,-12,-8
10972856,-18,2,4,1,-1,-2,7,-3
10972856,3,0,-2,-4,-3,-5,-14,-6
10981851,-2,0,0,-1,0,-1,-10,0
10981851,0,-5,-4,-2,1,-1,-8,1
10995856,-4,-7,-15,-3,-3,-1,25,-8
10995856,6,3,8,0,-2,2,10,5
11004852,-3,1,8,1,3,-1,-1,0
11004852,-3,7,13,-2,-3,-2,-1,-4
11019893,-3,4,-5,2,-1,-2,-6,2
11019893,-2,-8,-14,-2,0,0,-9,-1
11021853,-2,-9,-1,-1,-2,-3,4,-4
11021853,13,11,5,1,-4,-4,11,1
11032859,-19,-24,8,-3,1,-1,-23,-3
11032859,3,-1,8,2,0,0,15,2
11041853,-1,1,-9,-5,-3,-3,-32,-4
11041853,-7,1,-3,2,-2,2,46,3
11056369,0,5,1,-5,4,-1,16,-6
11056369,-4,-8,-2,-1,-1,0,-12,6
11064879,-5,-5,-6,-1,0,-1,2,-1
11064879,2,3,-10,-2,-4,-5,-23,-3
11078880,11,1,-1,1,-3,0,9,4
11078880,-13,-1,3,-3,0,-1,0,-1
11086881,-5,-3,-1,-4,-4,-4,-4,-2
11086881,-2,-2,1,9,5,1,-7,-4
11092886,4,-2,-3,-2,-3,-3,0,2
11092886,2,-2,-5,0,-1,-2,-7,-5
11101881,-3,1,-4,-4,1,1,-1,-2
11101881,-5,-5,-4,-5,-2,-2,-1,-3
11116126,7,-2,1,2,-2,1,3,7
11116126,2,1,0,-1,-3,-3,-15,-6
11124882,-2,-2,-1,-3,-1,2,18,9
11124882,-6,-2,-5,-6,-2,0,14,1
11139890,-2,-7,2,3,-2,-3,-22,-4
11139890,3,5,-4,-3,-2,-2,-12,-3
11141885,1,-2,-3,-2,-1,-1,5,2
11141885,-4,-2,-3,4,2,-3,-21,-7
11153397,2,10,5,-1,-4,1,3,5
11153397,-4,-8,-6,-3,-1,0,4,-3
11162897,3,-1,10,0,-1,-2,-10,-5
11162897,9,7,2,-6,-4,-1,1,-1
11176165,-20,-10,2,-1,1,-2,6,2
11176165,5,-1,5,-1,-2,0,0,-5
11184905,0,3,0,4,-3,-1,1,0
11184905,2,-3,-7,-7,-2,0,0,-3
11200169,3,5,-3,2,-3,0,-7,-3
11200169,10,11,6,4,2,-2,-5,-1
11201906,-7,-29,-6,-1,0,1,16,2
11201906,-3,-2,1,-2,-2,-2,-9,-1
11212906,0,2,-7,-3,-4,-1,-26,-3
11212906,0,-2,-4,-3,-3,0,27,-4
11222938,-5,7,-1,0,-4,-2,16,-6
11222938,10,-6,-6,0,1,-3,-3,-5
11236243,4,-4,1,0,3,-2,-4,3
11236243,-3,6,-3,-1,-3,-3,-6,1
11244909,-1,7,5,1,1,-1,-21,-2
11244909,-10,-15,-6,-5,-4,-1,8,-2
11259714,0,4,-1,0,-2,0,2,-6
11259714,-1,0,12,-1,-1,-2,0,1
11265929,-4,7,7,2,0,-1,-19,-6
11265929,3,1,-40,-10,-1,-4,14,4
11272929,-8,-14,-5,3,-1,-3,-3,-1
11272929,-5,2,-5,2,0,0,-3,0
11281931,3,-8,-4,-1,0,-2,-3,-3
11281931,-9,4,12,-1,-1,-2,-3,2
11296144,2,-2,-5,-4,-4,-1,5,-2
11296144,-5,-8,-4,-2,0,-2,0,0
11304930,10,6,-4,-2,-1,-3,2,6
11304930,-27,-2,6,-2,0,0,-6,-10
11318219,7,-2,-2,0,0,-2,-3,-2
11318219,2,-2,3,2,-3,-3,-3,1
11326932,14,2,-4,-5,2,-1,-24,1
11326932,-11,-2,4,1,-4,-3,-1,6
11332932,6,5,1,-8,-1,0,32,-3
11332932,-15,-13,-9,-5,-3,-2,2,5
11341933,-11,1,-5,-3,-2,-3,-5,-2
11341933,1,2,5,0,0,0,0,-5
11356942,1,-9,-1,0,-3,-1,-12,2
11356942,10,2,-4,0,-1,-1,4,-5
11364955,-9,-4,-1,-9,-1,-2,17,-5
11364955,2,3,6,5,0,-1,-8,6
11377961,-2,5,-2,-1,0,-2,-9,-4
11377961,-1,-2,-3,-2,1,0,1,-1
11386955,-3,-5,-5,-1,-4,-5,-9,-3
11386955,1,-3,-1,-3,-3,-1,4,-3
11393248,-4,-2,3,-3,0,-3,-9,-6
11393248,0,-4,-4,-3,-5,-6,-22,-6
11401955,-7,-3,0,3,0,2,23,-2
11401955,10,-1,-3,-1,0,1,6,2
11416075,-11,9,1,5,-2,-1,1,1
11416075,-11,-2,-3,-11,-3,-3,-22,-9
11424956,-7,-10,3,10,2,-1,-7,-7
11424956,14,-17,-9,-4,0,-3,-3,4
11438238,-5,13,-2,-9,-3,-2,-16,-2
11438238,7,2,2,6,-1,0,9,2
11446960,0,-2,-6,-1,-6,-3,-4,-1
11446960,2,7,4,-4,-2,-1,-9,-7
11453970,10,-7,-1,2,1,-2,-19,7
11453970,6,-3,1,-1,0,4,40,5
11462471,-5,9,-4,-6,-2,0,1,7
11462471,-4,-6,5,-1,-8,-6,-15,-16
11476981,2,2,-10,-3,-1,-2,21,4
11476981,-8,-1,2,-1,0,-1,-6,0
11484996,3,-7,-3,7,2,4,5,-14
11484996,9,2,-2,-8,3,-1,7,-1
11497992,-27,-10,-1,-6,-5,-3,-12,3
11497992,4,6,-5,-1,2,1,12,-11
11515983,1,-4,2,-3,-1,-1,-5,1
11515983,-8,-2,-5,-3,-5,-4,-16,-4
11516984,-5,-8,-2,-3,1,4,9,-13
11516984,29,-2,3,1,1,0,11,23
11521983,-29,10,-2,7,-3,-2,12,3
11521983,-9,-8,3,-1,4,-1,-2,0
11536318,20,7,-2,-4,-8,-1,14,6
11536318,6,-2,-4,-4,-1,-2,-3,-20
11544985,-24,0,6,-4,2,-5,-29,-4
11544985,20,0,2,3,0,6,62,22
11559799,14,1,0,4,2,-2,-28,-9
11559799,-19,13,-7,0,1,2,21,15
11566053,-5,-23,-2,-10,-7,-3,-15,-11
11566053,-16,1,3,7,0,-2,-21,-10
11582035,-16,3,-3,-2,0,-4,-18,2
11582035,14,-2,5,2,-1,-1,-8,-7
11584021,27,-1,-2,1,-1,-3,12,-32
11584021,-15,5,1,1,0,2,-28,-12
11596228,-1,7,4,-2,-4,-4,10,-10
11596228,-37,-16,-23,2,0,1,9,18
11605021,13,6,-4,-4,-2,-5,-13,-1
11605021,-14,-14,11,3,1,-4,-13,6
11618309,16,-3,-22,-10,-4,-1,-3,-17
11618309,4,11,9,0,-2,-5,-24,0
11627022,-2,-5,8,-1,5,5,36,30
11627022,4,-1,-18,-5,-4,-2,-14,-13
11641310,-17,-6,4,2,2,0,7,0
11641310,10,0,-1,-3,-2,-2,-11,1
11650035,26,11,-5,-5,-3,-3,-12,-5
11650035,-3,7,8,0,1,0,1,2
11656535,8,-11,4,5,2,1,9,-8
11656535,-11,-8,-6,-3,-4,-6,-19,-11
11665046,-2,3,-1,0,-2,-1,15,18
11665046,-4,-1,-4,-2,-2,1,10,-1
11678052,-4,-3,-4,-6,-4,0,35,8
11678052,-4,-2,3,0,0,0,-8,-14
11687047,-5,-1,-2,1,-1,-3,-6,1
11687047,3,4,-2,-1,-2,2,-5,-1
11702273,0,-4,-2,1,-1,-1,-7,-5
11702273,-9,-4,5,3,-1,0,-1,-1
11704046,2,-3,0,-4,-2,0,0,-3
11704046,8,2,-6,-2,-3,-3,5,5
11716347,-7,-3,1,2,2,-2,-14,-3
11716347,-1,-6,-2,0,-3,-1,-1,0
11725047,4,3,-7,-9,-3,-2,-3,3
11725047,-2,2,7,7,9,-1,-2,-6
11738333,-3,0,-6,-2,-7,-2,-10,6
11738333,-4,-7,4,-6,1,0,6,-10
11748560,-3,-6,-11,-9,-3,-1,-8,3
11748560,-1,3,4,23,-5,-2,1,4
11762562,-2,6,20,2,8,0,1,-3
11762562,2,-6,-5,-4,-2,0,-5,-1
11764062,-6,3,-10,-4,-6,0,-9,-5
11764062,-2,-1,-12,-27,-9,-2,-3,3
11776432,4,3,16,27,12,2,29,16
11776432,-1,7,6,1,6,1,4,-9
11785070,-28,-13,2,18,2,0,19,9
11785070,-6,4,-9,-11,-6,-4,-11,-12
11799071,0,-12,-13,-12,-12,-3,-10,-3
11799071,0,-7,2,-5,-1,-5,-8,1
11807072,19,4,-1,1,1,1,-2,-1
11807072,-19,0,-2,-4,-1,0,3,1
11822073,-6,0,-1,-6,-1,-2,-21,-4
11822073,0,1,-1,5,-3,-1,12,2
11824073,5,-3,-2,-4,-1,-1,-9,-4
11824073,3,-4,-1,0,-2,-3,1,-3
11836409,3,0,-1,3,2,-1,-11,-4
11836409,-2,0,0,-3,-1,2,-1,4
11845076,-1,0,-2,1,-2,-3,2,-2
11845076,2,-5,1,-2,1,0,-3,-1
11858083,-3,5,-6,-8,-4,-1,2,2
11858083,2,-4,-3,-3,-4,-5,-6,-2
11868093,-3,3,9,-1,1,0,4,2
11868093,-1,-12,-8,4,0,0,-6,-4
11882479,-6,1,-6,-6,-6,-2,-4,3
11882479,-5,-9,-3,-6,-1,-1,4,0
11884126,6,5,1,2,-1,-4,-12,-9
11884126,6,12,-6,-3,1,-2,-5,7
11896229,-9,-4,6,3,3,2,26,0
11896229,-5,-4,-5,-10,-6,-4,-3,-6
11905095,3,-4,-3,1,-2,0,-14,0
11905095,-1,3,2,-5,-4,-3,1,2
11927379,5,0,-7,-5,1,1,-6,-1
11927379,-2,3,1,5,2,2,-2,2
11929117,-3,-1,-2,-2,-1,0,2,-4
11929117,-3,-14,1,-5,-3,-1,-5,-6
11942381,1,3,1,3,2,1,-7,-1
11942381,0,-1,-1,0,-2,-5,-12,0
11944115,-2,2,-3,-2,-1,-1,23,2
11944115,5,-1,0,3,1,1,1,-1
11956115,-1,-9,-1,-2,-3,-2,-1,1
11956115,0,7,-5,2,-2,0,-1,1
11965117,-7,-5,2,-4,-1,-3,-6,-2
11965117,9,3,4,2,0,1,0,1
11978119,-3,9,-1,-8,0,-2,3,-4
11978119,-10,-7,-7,4,-1,-1,-7,0
11988120,8,4,7,-3,-5,-3,-13,1
11988120,6,-9,-7,-1,-2,-3,7,2
12002118,2,1,-4,-1,-3,-1,-25,-2
12002118,-3,7,-2,-6,-2,2,7,2
12004358,-6,-7,-1,3,2,2,26,0
12004358,-1,-6,2,-3,-1,-2,10,8
12016358,-18,-17,-3,-2,-5,-6,-31,-14
12016358,18,9,-1,1,1,1,37,-3
12025119,-3,9,0,1,2,0,-10,-3
12025119,-7,2,0,-4,-2,-3,-2,-5
12038333,-4,-20,-5,-2,-2,-4,5,0
12038333,-4,-5,-1,-1,-2,-1,-11,1
12047121,13,5,-3,-3,-2,-2,-1,-2
12047121,7,-3,-1,2,2,0,0,-3
12070684,0,-1,-2,2,-1,-1,6,0
12070684,-1,0,0,5,-3,-1,-7,-2
12072348,-5,-11,-3,-10,-1,-1,8,-4
12072348,-11,11,6,3,0,-1,-17,-2
12076355,6,-4,-10,-3,-2,-2,17,3
12076355,0,-3,2,2,-1,-3,-14,-2
12085350,-1,3,-4,0,-1,-2,-17,-3
12085350,-8,-4,-4,-3,-3,2,49,0
12098586,3,5,1,1,-2,-1,-12,6
12098586,3,4,0,-6,-2,-1,0,6
12108576,-23,-12,-3,-4,-5,-2,-6,-1
12108576,-2,-14,-3,-2,-2,-3,-24,-9
12122622,-5,6,1,2,2,1,23,-2
12122622,-5,-4,-3,-5,-4,-2,-3,-3
12124583,4,-4,-3,0,-2,-1,-7,-1
12124583,0,2,-4,-2,-2,-2,-12,0
12136623,-3,-3,1,-5,-2,-1,-1,-2
12136623,5,1,-3,1,1,-2,-7,-3
12145580,-3,1,5,2,0,-1,2,-2
12145580,0,1,-1,-1,0,0,2,-2
12158665,-1,-2,-1,-3,-2,-1,6,-3
12158665,8,-3,1,2,-3,-4,-23,0
12167373,-14,-8,-7,-10,-4,-3,30,-9
12167373,8,10,5,4,-1,1,3,1
12182374,3,4,-1,-2,-2,-4,-1,-1
12182374,-15,-11,-2,2,0,-1,-13,-3
12184375,15,0,1,-3,-1,-1,2,0
12184375,-6,5,-3,-4,-4,-3,-12,-6
12196375,-10,-6,0,0,1,2,15,7
12196375,-3,-8,-4,-5,-4,-3,-8,-3
12205374,4,-6,1,5,0,-2,-9,0
12205374,-2,5,-3,1,-1,0,8,-3
12218641,11,4,2,-5,-1,0,-11,0
12218641,-5,-3,0,4,0,-1,2,-4
12228614,-4,0,7,1,-1,2,-8,1
12228614,1,-4,-21,-1,0,0,4,-2
12242717,-3,-1,-7,-3,-2,-1,-10,-6
12242717,-8,1,6,-4,0,1,17,9
12244412,10,1,-3,-1,1,0,-20,-16
12244412,0,7,11,0,-2,0,13,0
12256887,3,1,-5,-1,1,-2,-7,-4
12256887,2,-20,-5,-5,-1,-1,25,1
12265397,-8,0,-4,-2,-3,-2,-9,5
12265397,-6,-16,-1,-3,-1,-2,0,0
12278721,-2,7,4,-1,-4,-1,-8,-5
12278721,2,-3,3,-1,-1,-1,-1,-4
12288397,1,4,-3,4,0,-2,-10,1
12288397,2,-13,-4,-9,-2,-1,-7,-5
12302718,-6,3,8,7,2,-1,1,1
12302718,10,10,-6,-2,-2,-1,-8,-1
12304415,0,-2,-3,-2,-1,-1,10,1
12304415,-8,-1,0,0,-1,-2,-17,-2
12316722,0,-6,-2,1,-2,-1,12,-4
12316722,-4,-2,2,-1,-1,-1,15,-4
12325399,1,10,-5,-1,0,-1,-8,6
12325399,5,-14,1,1,2,-1,-9,1
12347401,5,-1,1,-3,-1,0,-2,-1
12347401,-9,-4,-5,-4,-3,-4,-14,-2
12349409,2,-1,-2,-3,-3,-1,1,-1
12349409,5,5,0,1,0,0,-2,2
12361411,1,-6,-3,0,-2,-2,-7,-2
12361411,-1,9,-1,-4,0,-1,-1,-1
12368419,-3,-6,-3,0,-1,0,0,-1
12368419,-3,0,-3,-3,-5,-4,-2,-4
12376421,-1,-5,0,2,-1,-2,-4,0
12376421,-6,5,1,1,3,1,-3,-3
12385420,6,3,0,1,-2,-1,5,0
12385420,-2,6,-1,-5,-2,-2,-11,-2
12398421,-1,-28,-2,-2,-3,-1,10,3
12398421,-3,1,-2,1,-1,-1,-5,1
12408421,-1,7,-5,-2,-2,-2,-9,-2
12408421,-6,-7,2,3,0,-1,3,-4
12422744,0,10,-4,-7,-5,-2,-6,1
12422744,0,0,-3,3,-1,-1,-3,-6
12428716,-4,-7,1,-3,0,-2,-4,-4
12428716,5,8,4,2,1,-3,-15,7
12436715,-20,-3,-1,-2,2,4,18,-7
12436715,9,-4,-5,-4,-5,-5,-21,0
12445423,-29,1,-1,-2,-3,0,6,0
12445423,7,0,1,-2,0,-1,16,0
12458433,3,-3,-5,0,-1,-4,-2,1
12458433,-1,3,1,-2,-2,1,-4,-2
12473679,0,-1,0,1,-1,-2,-10,-3
12473679,-10,-7,-5,-3,-4,-2,0,-3
12482630,5,5,1,-1,-2,-3,-6,-2
12482630,-12,3,1,1,0,0,5,-4
12488443,6,-5,1,2,-1,-3,3,1
12488443,-4,10,-3,-8,-3,0,0,-2
12505716,0,-6,-4,5,1,-2,-14,3
12505716,5,-13,2,-3,-4,-4,-6,-5
12507444,1,-2,-4,-4,-2,1,16,-2
12507444,-3,-3,1,0,1,-1,-10,0
12518445,2,10,-6,-5,-4,-2,-5,-7
12518445,4,5,2,0,0,0,17,2
12528445,-1,-17,-1,-2,0,-2,-27,-6
12528445,-3,4,-2,3,-3,0,28,-2
12542747,4,8,0,-1,1,-1,-5,-2
12542747,-4,-15,-4,2,0,-2,-11,1
12548446,-1,1,-3,-4,-2,-2,7,-1
12548446,-16,-11,-4,-2,-1,-3,-19,-1
12565463,-5,12,4,-1,-1,-1,26,1
12565463,2,-7,-2,-6,-3,-3,-1,-5
12567463,12,-5,1,12,2,1,-17,4
12567463,-11,0,0,-10,3,-1,22,-9
12578716,-8,-19,-1,5,-1,-2,-20,0
12578716,-3,8,-3,-4,0,4,18,2
12588464,8,-2,-3,-1,-3,-1,2,1
12588464,-8,12,5,-5,-3,-5,-25,-6
12602743,8,17,-1,0,-3,-4,-15,2
12602743,-14,-23,-1,6,4,0,22,-6
12608707,13,-12,-5,-6,-3,-3,5,8
12608707,2,10,0,6,-3,4,29,14
12625706,-5,8,-1,-1,0,-4,-44,-9
12625706,-1,6,10,-2,-1,2,-11,12
12627467,-7,-12,-1,-3,-2,1,24,-18
12627467,-16,-16,-7,-9,-5,-4,-4,5
12638706,33,3,1,7,1,3,17,17
12638706,-19,11,-8,-3,-3,-6,-28,-16
12648468,-2,0,7,3,7,-1,15,12
12648468,-9,5,-1,0,-6,-6,-36,-3
12662477,43,-17,-3,0,1,7,74,-4
12662477,21,19,-2,-8,-7,-7,-17,-26
12668484,-58,-18,-7,0,-3,-1,-32,20
12668484,42,-1,3,1,-1,-3,-10,-3
12685709,-23,-3,-4,1,-1,-2,-30,-6
12685709,4,9,0,-3,-1,1,42,8
12687635,-39,-13,-13,-14,-4,-4,-20,-29
12687635,19,-10,4,9,5,4,27,13
12698637,10,-20,-3,-8,-3,-3,6,5
12698637,-15,28,7,0,-1,-2,-32,-28
12707486,36,7,4,1,1,0,-13,17
12707486,-36,-18,6,2,0,1,5,9
12721664,-48,2,-2,-7,-5,-7,-20,-17
12721664,12,-7,0,0,2,5,13,40
12729486,15,16,0,1,0,-1,-2,-11
12729486,58,-2,-3,0,0,1,8,8
12752470,-22,-7,-2,-2,-2,0,-16,-1
12752470,-41,-30,-6,-2,-1,-1,-5,8
12754242,9,15,7,5,0,2,38,-3
12754242,52,20,-1,-3,1,2,20,-10
12758208,-60,-7,4,-3,-4,-4,-18,-14
12758208,24,-12,-24,-3,-2,-3,12,0
12767721,35,0,-1,0,0,0,-8,-38
12767721,-18,-4,-4,0,-2,-4,-24,-4
12789984,1,4,1,3,0,-2,24,-2
12789984,19,1,18,2,1,-3,-31,6
12791723,-1,-1,-22,-8,-5,1,19,10
12791723,-14,5,-1,-4,0,-3,2,-17
12803937,7,-3,-2,-4,-3,-1,-2,1
12803937,18,-4,-7,3,1,-1,-8,-6
12810727,2,8,16,-3,-3,-5,-15,2
12810727,-28,-4,-5,-1,-1,-3,-18,-3
12818725,11,-3,-7,0,1,0,9,4
12818725,-6,-2,-3,0,-1,-3,-7,-9
12827725,-15,-3,0,0,-1,-1,5,0
12827725,-3,-6,-4,0,-1,1,0,-3
12841726,3,3,7,0,0,1,3,2
12841726,3,4,-5,-1,-1,1,9,-1
12850234,-5,-2,-1,-4,-3,-4,-13,1
12850234,-13,-3,4,6,1,1,2,-2
12865744,5,-1,-9,-3,-1,-3,-2,-1
12865744,-8,4,1,6,-5,2,10,-1
12866743,-3,4,3,-13,0,0,2,2
12866743,-9,0,2,1,5,-1,-13,-6
12878743,6,-3,-5,-4,-7,-2,0,1
12878743,1,0,2,17,4,0,-1,0
12887745,-4,-4,-8,-28,-7,-3,-1,1
12887745,-4,8,0,8,1,1,-7,-4
12900746,1,-4,5,-5,-4,-1,5,3
12900746,-8,-27,-28,-28,-10,-3,-8,-5
12909744,-17,0,2,21,-4,-8,-18,-9
12909744,2,7,9,-9,10,5,29,6
12925745,4,11,3,8,0,-2,6,1
12925745,14,-3,5,10,2,-4,-7,-5
12926767,2,9,-4,4,-2,-2,-18,-1
12926767,-7,-42,-14,-11,-9,-3,-16,-1
12938746,3,10,1,1,1,-1,-2,1
12938746,-1,-1,3,-3,-1,-1,6,-1
12947748,4,8,-1,2,3,3,2,3
12947748,1,8,0,2,-3,-4,-7,-2
12961258,0,-6,-7,-7,-1,-2,0,2
12961258,-4,-1,4,-4,-3,-2,-6,1
12969766,1,-2,0,4,2,1,8,1
12969766,-1,3,-3,-2,-6,-4,0,-3
12985101,-2,-8,-3,-1,-1,0,-4,-2
12985101,-8,3,-1,-4,-2,-1,7,-2
12986803,2,-1,2,2,0,1,8,1
12986803,-5,-3,-8,0,-6,-3,5,-4
12997768,2,1,5,-11,2,-1,-6,-1
12997768,-1,6,9,1,3,1,-3,1
13007767,-6,-5,-5,-5,0,-2,3,-3
13007767,0,1,-3,0,-3,0,-13,3
13021074,5,6,-2,-1,-2,0,11,-1
13021074,-10,-1,1,-6,-1,-3,-29,-1
13037771,5,-27,4,8,2,2,20,3
13037771,-9,2,-1,-7,-4,0,2,-2
13044812,19,-1,-3,-1,-5,-2,20,3
13044812,0,13,0,0,0,-1,-4,-2
13046771,-3,-3,-7,0,0,1,-7,-2
13046771,-1,1,2,-3,1,-2,-7,-8
13058319,-1,6,-4,2,1,0,-11,-2
13058319,3,-1,-2,-2,-1,-2,3,1
13067789,0,6,6,0,-2,-1,1,2
13067789,-14,-34,-7,-3,-3,-4,0,-1
13080823,-9,-18,0,-3,-2,-1,-7,-3
13080823,3,-1,7,2,0,-2,6,0
13089789,-7,14,-2,-4,-1,0,-1,-10
13089789,8,12,-4,-2,1,0,0,-1
13104829,-20,-6,1,-1,0,-1,-7,-3
13104829,-10,-8,-6,1,-3,-2,-12,-9
13106790,9,-7,-7,0,0,-1,-3,7
13106790,-9,2,3,-1,0,5,29,14
13118003,6,3,-4,2,-1,-2,-5,-2
13118003,0,3,-3,-3,-2,-1,2,6
13127790,-9,-6,-4,-3,-1,-3,-22,1
13127790,7,3,2,5,0,-5,-9,-11
13141021,0,5,4,-3,4,2,6,-3
13141021,-22,-6,-2,-6,-4,-2,-14,2
13150591,1,4,-1,-1,-3,0,33,-3
13150591,-2,-5,-4,0,-4,-1,-9,-3
13165017,-3,-10,-3,-4,-1,-1,-5,-2
13165017,3,1,0,1,0,-1,4,-3
13167064,-5,-8,-5,-1,-2,1,-5,-1
13167064,1,9,2,0,2,-2,6,-1
13178240,-5,7,-4,2,-1,-1,-10,-3
13178240,7,-2,7,-4,-4,-1,6,-2
13188028,-3,2,7,0,-1,-3,-2,2
13188028,-1,-9,-5,-3,0,-2,-11,-2
13201289,-5,-2,0,-1,-1,-2,-4,4
13201289,16,0,-5,2,2,2,-3,1
13210258,-2,-1,-3,-7,-4,-4,-3,-1
13210258,-10,1,0,-3,-4,-1,33,-1
13225035,6,8,0,0,1,0,5,4
13225035,-7,-10,-4,-3,-2,-1,-1,-7
13227030,2,-2,-1,-2,0,-3,-17,1
13227030,4,0,-4,-3,-1,-2,-21,-7
13238243,-5,4,0,0,-2,1,19,3
13238243,-7,-3,-3,-1,0,-1,7,-1
13248031,-2,-6,-1,1,0,0,1,-1
13248031,2,1,0,0,0,-2,-19,-1
13261249,-5,-10,-4,-4,-2,0,-7,-2
13261249,1,5,1,0,0,-1,-2,-4
13269467,-7,-9,-8,-3,-2,-3,0,7
13269467,1,16,6,-1,-3,0,19,5
13284467,4,-10,-3,2,-1,-1,-3,-4
13284467,-5,-6,-4,-4,-2,1,6,5
13291467,4,9,-2,-4,-3,-4,-15,-7
13291467,-3,-9,-5,-2,0,1,13,0
13298576,-4,-1,2,0,-4,-6,-6,-2
13298576,5,-3,-6,1,-2,-1,-17,10
13313469,-1,6,4,1,3,1,-6,-20
13313469,-9,1,-3,-1,-2,-2,-4,1
13321644,8,-11,-4,-4,-4,-1,-8,-5
13321644,3,10,7,1,-2,-2,0,-5
13330469,-27,3,-2,-2,0,0,6,2
13330469,8,-6,-5,0,0,-2,-14,-4
13344642,2,4,-2,0,0,-1,-1,-6
13344642,-1,-9,-6,-2,0,-1,5,-5
13351416,10,1,-1,-2,-3,1,-4,16
13351416,0,3,-1,-2,-2,0,5,-6
13367405,-18,-2,-3,-3,-2,-3,-21,4
13367405,7,0,0,-2,1,1,19,5
13369404,-1,-4,1,0,-2,-4,-7,-8
13369404,1,-3,2,1,2,2,10,8
13381406,13,5,2,-3,-4,-3,-4,1
13381406,-20,-5,-4,-3,-3,-5,8,2
13390407,7,4,0,1,1,-1,-20,-1
13390407,-8,-10,-6,-2,-4,-3,-7,0
13404408,-4,-4,-3,0,0,-1,6,-3
13404408,-3,-3,2,-2,-3,-1,3,-4
13411641,2,6,-6,-3,-1,-1,10,-1
13411641,1,1,8,-2,-2,0,-8,-3
13418612,-5,-3,0,0,-2,0,2,-1
13418612,-4,13,-1,-1,-1,-2,-8,-9
13428607,13,-14,-3,-1,-3,0,16,5
13428607,-21,-9,-2,1,-1,-1,-7,-1
13441711,6,1,-1,-1,0,-1,-10,-10
13441711,-12,-4,-4,-2,-1,0,11,2
13458417,-3,9,3,-3,0,-2,4,-2
13458417,6,-2,-4,-1,-2,-4,-27,-11
13464418,-6,-4,0,0,2,1,57,13
13464418,3,0,-2,-2,-1,-2,-7,-14
13471434,-1,-5,-2,-2,-6,-2,-16,-6
13471434,-4,-2,-1,-2,-1,3,15,8
13487434,1,1,0,0,0,0,-15,-7
13487434,5,2,0,2,2,1,5,4
13489429,2,-7,0,0,-2,-1,-5,-6
13489429,10,10,0,-1,0,-3,-13,-3
13501639,-7,-10,-8,-2,1,-1,-3,-1
13501639,9,7,10,-3,-1,0,-2,3
13510576,-15,-11,-3,-2,-1,-1,6,-5
13510576,6,3,-1,-1,-2,-1,6,2
13524579,0,7,0,-2,-4,0,-8,0
13524579,0,-4,-5,-1,1,-1,-8,-3
13531431,5,-13,-3,-1,-1,0,9,6
13531431,-7,5,0,-2,-4,-2,0,-2
13547430,-2,0,-2,-1,2,-3,-16,-4
13547430,2,2,0,3,0,0,19,8
13549430,-11,2,-1,0,-2,-2,3,-3
13549430,-4,-8,0,-3,-1,-1,-4,6
13561588,-3,-6,1,-3,-3,-2,-19,0
13561588,0,6,-4,-1,-1,-1,20,-10
13569657,-1,1,-1,0,0,-3,-1,10
13569657,4,-1,-3,-1,-1,-2,4,-1
13584658,-4,2,1,-1,0,-1,-8,-8
13584658,-1,-5,-3,-3,-2,-1,-8,3
13591658,9,-5,-2,-1,-3,-1,-1,-6
13591658,-8,-1,0,-2,-1,-2,-7,-4
13607659,9,3,1,-1,-4,-1,1,2
13607659,-4,-7,-5,-2,-4,0,-2,3
13609659,3,6,5,-1,3,0,3,-5
13609659,-10,3,2,2,0,0,-3,1
13620666,-4,0,-3,-2,0,0,2,0
13620666,-3,-9,0,2,1,-1,-8,-5
13629661,-7,-1,0,-4,0,-2,-14,0
13629661,25,-2,-8,-4,-4,3,28,2
13644661,-10,0,-3,0,0,-1,1,-5
13644661,-9,0,4,-3,-2,-4,4,0
13651589,1,2,-3,1,1,1,-24,3
13651589,-4,-7,-5,-1,-1,-3,-5,-5
13667597,6,17,5,0,-2,-2,0,-3
13667597,2,-1,-5,-1,-1,-1,-3,2
13668598,-14,-14,-1,0,-3,-2,0,-15
13668598,0,-2,-1,1,-3,-5,-13,-2
13681601,-5,-7,-3,-3,-3,-2,6,2
13681601,-7,-3,-1,1,2,-1,-15,-3
13690598,-8,13,2,0,1,0,16,0
13690598,0,1,-5,-2,-1,-1,-8,-1
13704639,-7,-15,3,-2,-2,-3,-1,-3
13704639,3,-9,-1,0,-2,-1,-2,-1
13711674,4,-3,-4,-8,1,0,6,2
13711674,-6,1,1,3,-1,-3,-4,-2
13734603,0,5,-2,0,-3,-1,-2,2
13734603,5,1,-2,-2,-2,-1,-9,-2
13736603,3,-1,-2,-1,-2,-1,-1,-1
13736603,-6,1,0,-3,-1,0,8,-4
13740609,-3,-5,0,0,2,1,-20,3
13740609,-2,-7,-5,-3,-5,-1,22,1
13750110,-1,5,-3,1,-3,-2,2,-1
13750110,-1,-6,1,-1,-1,-2,-15,-11
13764112,0,-4,1,2,-2,0,15,0
13764112,-4,-2,-4,-1,-2,-1,-9,1
13770628,11,1,0,-1,-1,-1,-2,0
13770628,-21,0,-2,-3,-2,-1,-5,-2
13786629,1,3,-5,-2,0,-2,1,4
13786629,-3,-8,1,0,1,-1,5,-1
13788622,0,0,0,0,-4,-1,2,-2
13788622,2,-3,-1,-1,0,1,-6,-5
13800629,19,0,-4,2,-2,-1,-5,7
13800629,-12,9,0,-10,-1,-2,-12,-2
13809624,-3,-7,1,6,0,4,12,6
13809624,1,-4,-1,-3,-1,-2,0,2
13823631,-2,-1,-1,-4,-6,-5,-10,-7
13823631,6,-2,-1,1,-1,-1,0,0
13830625,-3,0,-3,-1,0,-3,-8,-1
13830625,1,2,-2,4,0,2,1,-11
13846627,-4,-3,4,-2,1,2,19,8
13846627,4,3,-2,3,0,-1,8,2
13848627,-3,-11,-5,-3,-1,-1,3,-8
13848627,-10,5,-3,0,-4,-4,-1,-4
13869943,0,-3,4,-4,-4,-6,-21,-8
13869943,7,2,3,0,5,2,8,7
13871644,4,5,0,0,1,-1,1,2
13871644,3,-6,-5,-10,-8,-3,19,11
13884698,1,2,0,8,4,2,-6,-1
13884698,-17,-4,-3,-13,-3,-4,-10,-5
13890651,0,-7,-2,6,-1,-1,-6,3
13890651,-1,-6,5,4,3,-3,0,-8
13906646,24,-3,-7,1,-1,-1,-20,-12
13906646,-20,0,3,4,-6,1,21,5
13908647,-11,-8,-15,-16,-5,-1,21,-1
13908647,5,19,1,16,0,-1,19,16
13920652,-27,-7,-7,-7,-4,-4,-24,-19
13920652,14,6,12,-4,3,0,-9,4
13929653,-6,-21,1,7,-2,-2,-4,-4
13929653,14,-17,-16,-7,-2,-6,-38,2
13944647,-7,10,6,0,0,5,38,-9
13944647,7,-4,-8,0,-6,-6,-33,-1
13951741,-9,13,0,-6,-5,-5,14,13
13951741,-1,-7,-1,-2,0,0,-32,-1
13966953,-7,3,-2,0,-2,-1,1,1
13966953,-6,-11,-6,0,-3,-2,-11,7
13968987,-13,6,6,3,5,2,-11,18
13968987,29,0,0,-8,-3,-1,25,-16
13981063,-58,-8,-4,-3,-2,1,6,-3
13981063,-8,-14,0,4,2,-1,-17,-10
13989952,11,6,-1,-3,-3,-4,-12,-10
13989952,-17,9,0,1,0,-1,-4,9
14003164,7,6,-1,-6,-2,-1,-12,8
14003164,29,8,-2,3,1,2,21,-5
14012954,-51,-32,-6,-6,-4,-3,-32,-7
14012954,3,-4,-2,-2,0,-2,-19,-11
14026961,6,7,7,-1,-5,-4,26,-1
14026961,44,8,18,9,4,3,13,-3
14028954,-32,12,-14,-3,-5,1,21,14
14028954,55,5,-5,-8,2,0,-19,18
14040962,-9,26,31,2,3,-1,6,-8
14040962,-39,-66,-19,-8,-5,-2,11,-25
14050464,4,6,4,4,-1,-1,5,-13
14050464,-38,-9,0,-2,-3,-5,-29,-23
14063466,20,-3,0,6,3,4,40,29
14063466,10,24,-2,-6,-5,-2,15,0
14072976,66,9,6,1,0,0,-1,-18
14072976,-87,-14,-2,-3,-2,0,-17,3
14086983,4,-9,-11,-3,-1,-5,-11,-8
14086983,-5,15,1,7,3,-3,-42,-15
14088977,4,-9,-10,-7,-3,2,40,19
14088977,22,8,7,-4,-4,-3,-4,-9
14101013,3,-16,-8,0,1,2,5,1
14101013,-7,-1,-8,-1,-2,-3,10,20
14109976,13,7,3,-2,-3,-3,-23,-4
14109976,-6,0,1,0,-1,0,30,1
14123191,-3,-13,-1,-3,-4,-3,-18,-6
14123191,-9,6,-2,-6,-3,-4,-20,-27
14132978,6,-1,3,0,1,-1,6,5
14132978,4,-6,-6,-3,-3,-1,18,7
14146990,7,1,3,2,2,0,-3,-4
14146990,-6,2,-50,-5,-4,-1,-9,12
14148980,-9,2,17,-2,-1,-2,-8,-9
14148980,3,-8,-3,1,-1,2,6,3
14160993,7,5,-6,-2,2,-2,-13,-2
14160993,-7,-8,9,1,-1,0,8,1
14178000,-2,8,0,-21,-5,-2,-8,-8
14178000,10,-5,2,26,10,1,3,2
14183289,-22,0,-7,-4,-3,1,-6,1
14183289,-5,1,9,-7,0,-1,-3,-2
14193003,-3,-15,-4,30,1,-2,-9,-8
14193003,3,6,7,-12,-8,-1,6,6
14207338,5,-5,-13,-12,-4,-2,-4,-1
14207338,-2,1,7,-2,0,0,-4,2
14213003,-2,2,2,-8,4,-3,-12,-13
14213003,-5,6,5,20,5,3,18,-6
14221337,-2,-16,-9,-3,-2,-4,-33,12
14221337,3,9,-1,-1,-4,1,-8,-4
14230017,4,4,-7,-9,-5,-2,-3,-1
14230017,-10,3,1,-8,1,2,2,-5
14243289,8,-6,-3,5,0,-3,-5,8
14243289,21,-3,10,4,-1,0,-5,0
14253360,-12,-10,-7,-2,3,0,4,-3
14253360,4,-19,-10,-8,-5,-4,-8,-3
14266869,-28,11,-2,-3,0,-3,5,-1
14266869,-8,-6,3,1,1,-1,8,2
14272875,1,6,-3,4,0,1,3,1
14272875,4,2,-4,-7,-1,-1,3,5
14290129,7,1,1,-1,-1,-1,6,-9
14290129,-3,0,-4,-2,-1,-1,1,0
14291868,-6,-2,-4,-4,-6,-3,-7,-4
14291868,0,1,1,-1,-2,-3,-1,2
14303083,8,-2,0,-2,-3,-3,-2,-5
14303083,-5,1,0,0,-2,0,3,5
14312870,5,-4,-2,0,4,2,0,3
14312870,-1,2,5,6,5,1,1,-2
14326871,7,-8,-3,1,-5,-1,5,-7
14326871,-10,3,-6,-8,-6,-5,1,-1
14332871,0,-6,-6,-2,-4,-4,1,-1
14332871,-3,1,-2,-10,-2,0,-6,-3
14340907,-5,-1,4,13,4,0,2,-10
14340907,10,-4,2,-2,0,-1,-13,0
14350377,13,3,-1,-2,-2,-3,-10,1
14350377,-4,-2,-2,3,-5,-1,2,2
14363380,16,3,0,-11,-1,-4,-5,4
14363380,-13,5,0,3,3,1,-24,-7
14372883,4,-8,-1,-3,-5,0,32,-7
14372883,-1,4,-2,-5,-4,-3,-11,-2
14386884,-6,-6,-5,-4,-3,-3,-8,-7
14386884,-1,1,-3,4,0,0,-1,2
14392884,-2,2,12,3,1,-1,-18,-1
14392884,-6,8,-4,1,-4,0,5,0
14409920,-2,-13,-8,-19,5,2,7,2
14409920,0,-10,1,2,0,-2,5,1
14411920,-7,7,5,0,-1,-2,-2,1
14411920,3,-3,0,-1,-4,-3,3,-2
14422886,-3,4,-1,1,-2,-2,-3,2
14422886,1,-2,-4,-3,-2,-1,8,3
14432886,0,-2,-5,-3,0,1,-2,0
14432886,-6,2,3,-3,2,-2,-3,-3
14446887,2,-5,-5,-2,-3,-2,-4,-2
14446887,-3,3,4,2,0,-2,5,2
14453105,-6,-13,-4,1,-1,0,10,0
14453105,1,-8,-4,-5,-1,-2,-5,-3
14470107,-7,1,1,4,-2,1,2,-1
14470107,1,4,-1,-2,-3,-2,4,-2
14472107,0,7,-1,0,0,-1,-23,-2
14472107,4,-4,0,2,0,0,31,-4
14483309,-1,3,2,2,1,0,-8,-3
14483309,3,-2,-1,-4,-3,0,33,-2
14493351,-7,-2,-2,0,1,-1,-21,4
14493351,-2,-9,-4,-4,0,0,21,-2
14507389,-11,10,6,2,-3,0,5,-4
14507389,23,0,1,-3,-3,-4,-12,-7
14513109,-17,3,-2,0,1,-3,2,11
14513109,-3,0,-4,1,-3,-1,-6,-3
14530112,-3,-8,3,-2,2,-3,-1,12
14530112,30,-7,-1,-4,-3,-1,-5,0
14532113,-39,-26,-9,1,0,0,9,-2
14532113,1,19,1,-3,-2,-2,-21,-2
14543393,1,2,-3,-4,-3,-2,-5,-5
14543393,-9,-3,0,-1,0,1,3,3
14553404,18,10,0,3,-2,-2,-1,0
14553404,-8,-4,-5,-4,-2,-2,-3,-2
14567423,-2,-7,-7,0,-2,-2,-6,-7
14567423,-21,-15,-5,-2,-2,-3,-4,-1
14573423,7,12,8,-2,-2,-3,-10,-6
14573423,8,-3,2,2,3,0,-1,4
14590677,14,11,-1,-2,-4,2,16,-1
14590677,-20,-8,-2,3,0,-2,-15,2
14592425,8,-4,-7,-5,-1,-1,18,0
14592425,1,0,1,-1,0,1,-25,-2
14603425,-10,-6,-7,2,-4,-2,-12,-8
14603425,7,4,3,-4,-2,-1,-5,5
14612673,-6,-2,-3,-3,-3,-2,-9,-12
14612673,0,-5,2,0,-2,-4,1,6
14627645,1,-6,-4,-5,-3,-1,-15,-3
14627645,0,5,2,-1,-1,-1,6,1
14633427,3,8,1,-2,-2,-2,-3,2
14633427,1,-17,-1,-3,-3,-1,-2,-2
14650677,-2,-9,-2,-1,-1,-3,-8,-2
14650677,-4,9,-3,-2,0,0,-1,-1
14652184,-10,-9,-1,0,0,0,4,0
14652184,-6,3,1,-2,-1,-4,-20,-6
14663186,4,-11,-4,-2,-2,-1,35,1
14663186,-7,9,1,4,-1,1,2,-1
14673061,6,2,5,5,3,4,-3,2
14673061,3,2,-2,-2,-5,-4,-1,1
14687101,-5,-4,2,1,1,-4,-11,-4
14687101,-7,-5,-6,-3,-2,-2,0,-1
14693345,6,-9,-5,-4,-2,-1,-4,-4
14693345,4,8,4,-1,0,0,-8,-4
14710430,-11,5,2,0,0,0,6,2
14710430,5,-2,-6,-3,-1,-3,-9,-6
14712064,1,5,5,1,0,-2,-2,1
14712064,-3,-9,-4,2,1,0,8,7
14723351,5,-1,0,0,-2,-1,-1,-2
14723351,-8,1,-2,-1,-3,-3,-4,-1
14733065,6,-1,-1,4,-2,1,1,3
14733065,5,-6,-1,-7,1,-2,3,-1
14747068,-17,0,3,4,-2,0,-10,-3
14747068,-8,-3,-3,-2,-2,-1,-28,-5
14753572,7,7,-3,0,-1,0,7,-2
14753572,-2,5,-3,-2,-3,-1,7,1
14770439,4,-8,-3,-4,-1,-1,6,0
14770439,-11,-4,-2,-4,-6,-2,-29,-7
14772104,8,-4,-2,-7,-2,-1,34,5
14772104,-6,3,0,2,2,-1,-2,-13
14783105,-3,-6,-2,-1,0,-2,-12,0
14783105,0,8,2,1,2,4,35,4
14793105,1,-11,-2,-5,-5,-5,-12,1
14793105,-2,-8,-8,3,-4,0,2,-3
14807401,-9,12,10,-4,1,-1,-4,-2
14807401,1,-6,-3,3,1,-1,7,-4
14813106,-8,3,-2,-2,-1,-3,-6,-3
14813106,6,4,-1,-1,0,0,-4,-1
14830107,7,-5,-7,-2,-3,0,-1,-2
14830107,-8,-24,-3,-5,-2,-3,5,3
14832107,2,6,-2,-3,-3,-4,-24,-7
14832107,-11,-2,-2,-1,-1,0,29,2
14843325,7,7,0,1,1,-2,-12,1
14843325,2,4,1,-2,0,1,24,4
14853399,-7,-7,-1,3,2,-1,-14,-8
14853399,2,-3,-1,-3,-3,-3,-16,-5
14866902,-6,-2,-3,-1,-1,2,30,9
14866902,-1,5,0,4,2,0,-5,-10
14872911,-4,-1,-5,-7,-8,-5,-5,2
14872911,2,-6,-2,-2,-1,0,2,1
14889947,-1,-6,-5,1,-4,-1,-11,-4
14889947,-6,-9,0,-6,-1,-1,-6,-2
14891913,2,3,-4,3,1,3,8,3
14891913,3,10,4,-1,0,-2,0,-1
14902918,3,5,6,3,0,-5,-4,0
14902918,9,-4,-3,-4,-3,-2,-2,-2
14912911,-5,-1,0,-4,-1,-1,-5,-1
14912911,-3,-11,-8,-1,0,-1,15,3
14927179,0,-8,-6,1,-2,0,-4,5
14927179,7,7,3,-5,2,1,0,-3
14933132,0,4,-1,1,-3,-1,0,-1
14933132,-6,-6,-4,-2,-2,-1,-10,0
14950175,-1,2,-1,2,-1,-1,13,0
14950175,-2,-3,-3,-5,-6,-4,-4,1
14952530,1,-7,-2,1,1,-2,-5,-4
14952530,0,8,1,-1,-3,-1,-13,-8
14963419,-5,-7,-4,-6,-4,-2,16,0
14963419,3,4,0,3,1,-3,3,0
14973364,-8,-5,2,0,0,1,4,-7
14973364,3,-11,0,-8,-2,-3,-8,3
14987442,1,9,1,-2,-2,-3,-8,-2
14987442,-12,-11,-7,0,-3,-1,-5,-6
14993360,9,4,-1,3,0,-1,8,0
14993360,-3,3,-1,-4,-4,-3,-9,-4
15010439,1,-7,-2,-1,1,2,5,0
15010439,-22,-9,0,-1,-4,-5,-6,2
15012415,1,3,-3,-2,-3,0,-3,3
15012415,3,-9,-3,-2,-1,0,-1,3
15023154,-11,8,-4,0,-4,-2,-12,-5
15023154,0,10,7,2,6,1,-17,-10
15033149,4,2,3,-3,0,0,6,2
15033149,1,-5,-2,-1,-3,0,8,0
15047150,1,-7,-2,1,2,2,2,-1
15047150,-2,-4,-5,-1,-3,0,5,1
15054526,-3,-1,-3,0,-2,0,-7,-8
15054526,-5,14,2,5,1,-1,-5,0
15069595,7,-13,-3,-8,-4,-3,5,-2
15069595,-1,-4,1,1,-1,1,-4,7
15071595,1,8,-1,4,0,-2,9,-2
15071595,-5,-20,-3,-1,-4,-3,0,-8
15083595,-16,-1,9,2,3,1,-15,8
15083595,5,2,-4,1,-2,-1,11,5
15093595,-3,7,3,-8,-1,-2,1,2
15093595,-18,-2,-4,-2,-3,-2,-4,-2
15107596,4,-11,-6,-16,-7,-7,-21,-11
15107596,2,4,5,18,4,-3,-4,0
15121653,-7,-13,-5,-12,0,2,-8,-6
15121653,1,13,1,6,2,1,-3,9
15130600,2,-1,-5,4,-1,2,4,12
15130600,27,8,-2,-12,-7,-3,-8,-11
15131599,-21,-4,-3,4,-1,-2,-1,5
15131599,10,-16,-3,0,1,1,1,3
15144630,9,7,1,-2,0,-1,18,-8
15144630,1,-4,-8,-17,-2,0,-6,-5
15153154,-4,-20,-3,8,-6,-5,-9,-1
15153154,11,20,4,-5,0,-1,7,6
15167120,-7,-1,-11,5,-3,-4,-15,-9
15167120,-32,-6,7,2,0,1,13,-11
15174169,55,10,-6,-2,-3,0,41,6
15174169,-81,-18,-4,-3,-2,-5,-12,3
15189165,31,20,20,0,0,-1,-12,-9
15189165,-6,18,-12,-6,-2,-1,4,1
15196129,-4,-14,-2,8,0,0,8,-32
15196129,18,-19,-10,-2,-9,-6,-9,-14
15203411,32,1,-1,-20,5,2,-6,18
15203411,-11,2,4,7,-3,-2,-15,7
15213129,-8,7,9,2,1,1,23,49
15213129,2,-4,-4,-2,-2,-3,-11,-25
15227466,-11,-3,-1,-1,-2,-4,-4,-8
15227466,31,-8,-4,1,2,2,-15,-12
15234494,-2,-6,-7,-13,-6,-4,-42,3
15234494,25,14,4,0,0,2,31,1
15249472,-54,-16,-9,0,-1,-1,8,0
15249472,-11,-6,-4,-3,-1,-6,-14,9
15256429,-26,3,0,8,3,2,21,6
15256429,5,-7,1,-1,-1,2,0,4
15263431,26,5,1,0,1,1,13,-1
15263431,28,1,-2,-1,-5,-4,23,1
15272654,-48,2,5,-6,-1,0,-17,-14
15272654,-26,-7,-9,-1,-1,-1,-3,-18
15287621,-11,-4,-4,3,-2,0,14,52
15287621,-21,-3,0,-5,-1,-2,8,-6
15294439,21,10,2,0,-6,-4,-15,4
15294439,20,12,-4,0,1,2,24,4
15309440,-10,-10,-17,-1,-2,-4,-31,-17
15309440,-54,8,2,-4,-1,4,12,3
15316440,4,-10,-3,-4,0,-2,-14,9
15316440,58,9,8,7,4,3,-1,1
15323441,-24,-17,-7,-2,-3,-6,6,-12
15323441,18,9,0,-4,-3,1,22,0
15332585,-5,-8,-14,-8,-6,-10,-8,-21
15332585,-2,11,14,2,4,2,-54,11
15345650,22,1,5,-1,-4,-6,14,-9
15345650,-2,-23,-1,2,0,-1,-31,15
15355168,2,3,2,-3,0,5,51,-13
15355168,-5,4,3,-1,-2,-5,-13,7
15368673,7,2,1,0,-4,1,-6,-13
15368673,-3,-12,-8,2,-2,-3,1,10
15375679,6,-8,-12,-8,1,-1,-21,-9
15375679,-12,-5,-5,-6,-4,-3,5,-7
15391886,-17,3,2,5,1,2,0,-10
15391886,9,-3,-1,0,-3,-1,6,-3
15393673,2,-1,2,3,0,-1,-11,-1
15393673,-18,0,-3,-4,-5,-2,7,0
15405885,2,3,1,3,2,1,-1,2
15405885,7,-3,1,1,2,-1,-10,-10
15414674,1,-1,-6,-4,-10,-3,-3,-2
15414674,-10,-1,-5,-13,-2,-2,3,-13
15429674,8,1,3,8,3,0,5,16
15429674,3,-2,1,-3,3,-2,2,-1
15435865,-4,2,0,5,0,0,-7,-3
15435865,-8,-5,-3,-6,-2,-1,0,1
15453460,6,-4,-3,1,-5,-2,3,-5
15453460,-1,3,-4,-10,-4,-2,-7,-6
15459547,4,-3,6,16,3,1,5,8
15459547,-8,6,-4,7,-3,-2,-15,-4
15466544,-14,3,-2,-15,-2,5,34,9
15466544,6,-19,-6,-6,-3,-1,9,-6
15474789,-24,-8,6,12,2,-5,-14,-6
15474789,-2,-5,-3,-17,-2,0,-16,3
15489001,-2,2,-1,13,-4,-2,-4,-7
15489001,3,8,1,-12,-1,-3,0,0
15496015,4,9,1,0,0,0,1,-1
15496015,2,-14,5,8,2,0,9,4
15512009,25,23,-2,0,-3,-4,-16,-6
15512009,-23,-18,-8,-10,-8,0,-3,-6
15513791,2,-15,-1,10,5,-1,-4,5
15513791,-10,-1,-5,-8,-7,-4,7,7
15526022,11,-9,-9,-9,-2,-2,-6,-11
15526022,3,11,4,11,-3,-1,-19,-3
15534792,9,13,0,-10,-1,3,20,9
15534792,14,-5,0,6,3,1,-3,-8
15548808,-23,-6,-1,-3,-4,-3,1,1
15548808,-4,5,1,2,0,-2,-1,-1
15556318,-10,-8,0,-9,-3,-1,-5,-4
15556318,2,0,-1,3,1,-3,3,0
15571896,-6,0,2,0,2,0,-13,-5
15571896,2,1,-1,1,2,0,6,-2
15573615,13,-3,-3,-11,-4,-3,-7,-4
15573615,-7,0,-2,3,-4,-1,4,-3
15586616,-1,-6,0,-2,2,0,-6,-4
15586616,1,-1,-1,-2,-2,-1,4,1
15594616,-6,10,-4,-9,-6,-3,-6,-4
15594616,-1,-2,0,2,1,0,-2,3
15609617,-10,-18,-1,-2,1,1,-1,0
15609617,5,1,1,5,4,0,1,1
15616618,-5,-9,-3,-7,-5,-3,-16,-13
15616618,3,17,0,-3,-3,-2,14,-3
15632619,4,-3,-13,-1,-4,-1,2,1
15632619,3,3,2,0,-1,-3,-7,0
15633619,-1,6,3,6,5,3,3,-3
15633619,-11,-8,-2,-2,0,-1,-5,-1
15645906,1,0,2,1,1,-1,-4,-2
15645906,2,7,-7,-1,-2,0,8,2
15654908,-3,-13,-2,-5,-3,-3,-7,-1
15654908,4,4,-1,-1,0,-1,-2,2
15668923,-6,-7,-3,-3,-1,-2,-3,-1
15668923,-5,-1,5,1,-2,-4,-3,-3
15677917,0,5,-6,2,-2,-2,-1,-2
15677917,-4,-6,-2,-11,-3,-1,-2,-3
15692207,1,7,-4,-7,-8,-2,0,2
15692207,-4,11,11,17,8,0,-2,-2
15693926,4,-20,-3,3,0,-1,1,0
15693926,5,-9,-7,0,-3,0,1,2
15706253,-5,-12,-3,-11,-5,-3,-6,-3
15706253,0,10,-6,-12,-5,-1,-3,-2
15721249,-1,-10,-2,-3,0,-2,1,4
15721249,2,-1,1,5,3,0,-4,0
15729211,3,-2,3,-3,-1,-1,10,-4
15729211,6,-7,-1,0,-5,-2,7,1
15736253,-11,8,0,-2,-1,-2,7,-3
15736253,8,3,0,-2,0,-3,-9,-4
15752212,7,13,5,2,1,1,-5,1
15752212,-3,-23,-2,0,-2,-2,-2,-2
15754232,-6,5,-3,-7,0,-2,-6,-10
15754232,13,-6,-3,-1,-3,-1,4,2
15766285,-5,9,8,3,1,-1,-5,-3
15766285,-3,1,-3,-3,-2,-1,-4,1
15775233,4,-5,-1,-2,1,0,-1,4
15775233,-16,5,-2,2,-1,-1,-3,-11
15789567,-4,-9,-1,1,-1,-2,-1,-4
15789567,2,7,-1,-1,-2,-1,-1,0
15796229,3,-14,-1,1,-2,-1,-2,2
15796229,-11,-4,-3,-6,0,-1,-14,-9
15812534,-5,-8,-4,3,-2,0,26,-1
15812534,9,-1,-1,-4,-2,0,0,-1
15814230,6,6,-5,-3,-3,-2,-26,4
15814230,-1,3,6,0,1,1,28,6
15826236,-5,-4,-2,3,4,-2,-13,-1
15826236,-9,-1,-2,-1,-1,-1,-4,-6
15835231,20,17,2,-3,-1,1,2,-2
15835231,-20,-11,-2,2,-4,-2,-3,-1
15849570,-4,-23,-7,-6,-1,-2,-5,2
15849570,0,0,-4,-1,-2,-2,6,0
15856546,-5,1,2,0,0,1,-2,-3
15856546,5,9,1,-1,-2,-2,5,2
15872060,-2,4,1,-2,0,-2,-4,-2
15872060,-5,-10,-4,-2,-2,-4,-7,0
15874054,0,2,-2,-4,-3,-1,2,-2
15874054,2,-1,-5,6,-1,0,0,2
15886387,-3,4,7,-6,5,0,-7,0
15886387,-1,-5,-3,1,-3,0,-3,-1
15895055,-10,-2,0,-6,-1,-3,7,-3
15895055,2,1,-2,2,-2,-2,-25,-2
15909388,1,0,-6,-2,-6,0,5,-2
15909388,0,10,5,-8,6,2,-3,3
15916085,0,-7,1,3,1,-3,-7,-3
15916085,0,-8,-3,-9,-5,-1,16,4
15932064,-13,-1,-4,3,-1,-3,-14,-7
15932064,-1,-6,-6,-5,-1,-1,-1,-11
15934057,0,-2,-2,-2,-3,-2,-11,9
15934057,-3,4,-1,3,1,-2,-3,-2
15955592,3,7,0,0,-2,1,0,1
15955592,-1,-14,-4,2,-2,0,-1,-1
15957351,-6,-5,-3,-1,1,-1,9,-2
15957351,2,9,4,-1,-1,-3,-1,-2
15969359,3,5,-1,-3,-3,-2,1,1
15969359,1,-1,-1,3,-3,-1,0,0
15976602,2,-1,1,-4,0,0,0,-3
15976602,-2,-6,-2,-4,-3,2,5,1
15992530,2,3,-1,3,-2,-2,-5,0
15992530,-2,-8,-6,-18,-2,-3,-6,-1
15994489,-8,1,13,19,4,0,4,-2
15994489,-1,2,-4,-13,4,1,1,-2
16006557,-1,2,-1,-1,-2,-3,-4,-3
16006557,-5,-10,-4,6,-1,-2,0,0
16015495,-5,-14,-10,-10,-5,-2,2,-2
16015495,-4,2,3,2,0,0,-4,-10
16029488,6,2,-1,-1,-1,-1,-4,-4
16029488,2,10,0,-4,-2,0,-9,5
16036555,6,5,-2,0,-2,1,8,-2
16036555,-7,-11,-6,2,0,-3,-6,2
16052598,9,-3,1,-3,-1,-2,-1,10
16052598,-1,3,1,3,-1,-1,1,-7
16054108,-1,0,-2,-8,-2,-1,-5,-4
16054108,3,-2,-1,8,-2,-1,-7,1
16066142,-7,-1,-2,-1,0,1,7,-3
16066142,0,-3,0,1,1,1,1,1
16074617,1,2,-5,-1,-8,-3,-1,1
16074617,-4,-2,-2,-10,-4,-3,-5,-1
16089616,-5,-4,1,-9,-1,-2,-4,-3
16089616,-1,4,1,11,4,-1,1,0
16095903,-5,9,-3,-4,0,-2,-5,-5
16095903,12,-4,-8,2,-3,0,-2,6
16111955,-5,-12,5,1,-1,0,0,-4
16111955,6,-11,-2,-3,-7,-2,4,3
16119618,-9,5,-1,-6,-2,-3,-2,-3
16119618,1,5,-1,10,1,-2,1,-1
16126619,0,6,0,-6,-1,-1,-3,-1
16126619,-2,3,2,7,-1,-3,-4,-3
16134618,-1,-9,-3,0,-1,-2,0,3
16134618,4,-1,-1,-4,-3,-3,3,0
16149620,6,0,-4,-5,-2,-2,-15,-3
16149620,-17,-4,-2,-2,-5,0,8,-3
16156415,5,-3,-1,0,0,2,0,5
16156415,-7,1,1,-6,-1,-1,0,-3
16172556,2,-1,-3,5,2,-2,-8,-1
16172556,3,-7,-4,-12,-6,-3,11,-2
16179514,-3,1,0,5,1,0,-4,-3
16179514,-3,-5,1,-3,1,0,2,-3
16186426,-2,2,-2,0,-4,-2,-6,-5
16186426,-1,3,-1,0,-2,-1,-5,-1
16194426,-1,-2,-3,-7,0,2,5,-1
16194426,-2,-3,1,3,-2,-2,-3,-3
16209595,1,-10,-2,-2,1,0,4,0
16209595,-3,8,-1,-3,1,-2,-2,-2
16216623,0,-21,-7,-2,-3,-1,0,-4
16216623,-2,-4,2,-3,-2,-1,-4,-1
16232460,-4,-2,2,3,-1,-1,5,0
16232460,2,3,0,-1,0,0,-2,2
16239595,1,7,1,2,-1,-3,-4,-2
16239595,-4,-3,-5,-5,-1,-2,1,-1
16246428,-1,-1,-3,-2,-1,-1,2,-2
16246428,6,-1,-1,0,-2,-2,-4,2
16255240,-9,2,1,1,-1,-2,-2,-7
16255240,4,-3,-1,-1,0,0,3,-2
16268720,1,9,-1,-1,-2,0,6,2
16268720,-5,-4,0,-1,-1,-3,-2,-2
16276014,-4,0,-5,-5,-2,-3,-12,-2
16276014,10,-4,-3,-2,-1,1,-7,1
16291757,-4,-2,1,7,0,0,25,-4
16291757,-1,4,1,-3,-1,0,-5,-4
16298731,-4,3,5,1,1,0,-2,2
16298731,-3,-9,-5,-1,-3,-3,1,-3
16314732,-2,1,-4,-5,-2,-1,-9,0
16314732,-4,-5,1,-2,-1,-2,-3,-3
16316733,5,3,-5,4,-2,0,8,-1
16316733,-4,10,5,-9,0,0,-4,1
16329733,-3,-10,-1,1,-1,-2,-6,-1
16329733,-1,3,-2,-1,-3,-1,0,-2
16336017,1,-2,1,-4,-3,-1,-4,-1
16336017,-2,-2,-3,-4,-1,-1,2,-2
16351739,-1,-2,-3,-3,-4,-2,-3,-1
16351739,1,-3,-3,2,0,-1,-1,-1
16366243,1,0,-4,3,0,-2,1,0
16366243,-4,-3,1,-2,-3,-2,-1,-2
16375752,3,-1,-2,-3,-1,-2,-5,-2
16375752,-4,1,-5,-4,-5,-1,-5,0
16377015,0,-2,3,-3,-1,-2,1,-4
16377015,-5,0,0,1,-1,-1,1,0
16389011,1,0,-2,3,-3,-1,-5,-3
16389011,-2,-2,3,-10,1,0,-1,-2
16397751,0,-4,-2,0,-4,-2,0,-2
16397751,-1,-3,-1,3,2,0,0,-2
16412753,-2,-3,-12,16,7,0,0,-1
16412753,-1,4,14,-2,-5,-2,0,-1
16419087,-1,2,-9,11,0,-1,1,-2
16419087,0,2,-9,-21,-4,-2,-2,1
16435059,-7,-10,-8,-16,-9,-3,-2,-1
16435059,-2,-6,-4,5,4,-1,-3,-3
16436755,3,0,-11,-3,-1,-3,-1,-1
16436755,0,3,2,10,0,0,0,-2
16449755,-1,1,4,-1,0,2,-2,0
16449755,-1,-1,-5,5,-3,-1,-1,0
16456238,-1,1,8,-6,-4,-1,0,-2
16456238,-3,-4,-3,0,0,-1,-2,-2
16472074,1,7,2,-5,-5,-2,-2,-2
16472074,2,-6,1,-1,0,1,-1,-2
16479109,-6,-17,-5,-7,-7,-2,-2,1
16479109,-2,-2,0,-3,-1,-3,0,-2
16495437,-2,0,4,3,2,2,-1,-1
16495437,2,1,-3,2,3,1,1,-1
16497070,0,10,2,-3,0,-1,-1,3
16497070,-3,-3,-1,4,-4,-2,-3,-1
16509403,1,-6,0,-3,-4,-5,-2,0
16509403,-7,0,-10,-15,-3,-2,-1,1
16516070,0,-3,5,1,3,0,0,-2
16516070,0,4,0,-1,-1,-2,-1,0
16532234,-1,8,5,18,5,1,0,-1
16532234,3,-14,0,25,6,0,-1,-2
16539436,-1,-3,-7,-46,-18,-1,0,1
16539436,1,0,0,9,5,-1,-1,0
16555364,-2,-1,-3,-14,-2,-2,-3,-1
16555364,2,-2,-6,9,1,-2,-2,-1
16557365,2,1,4,7,5,1,-2,-2
16557365,-3,-7,-4,-5,-3,1,-1,-1
16568866,-6,8,3,-5,-5,-1,-2,1
16568866,1,1,0,-8,-4,-1,-2,-4
16577873,1,1,1,8,4,0,2,-2
16577873,2,-10,-5,-6,-4,-2,-2,0
16592206,1,1,-4,0,0,-4,-3,0
16592206,-5,1,-3,-7,-4,-2,0,-1
16599187,-5,4,0,3,0,-2,-2,-6
16599187,0,2,0,2,0,-1,0,-2
16614877,-1,-6,0,-1,-1,-1,-1,-1
16614877,2,2,-2,-17,-5,-2,-1,0
16616876,1,-5,1,10,4,1,-2,-1
16616876,-2,1,1,-2,0,-1,0,0
16629243,-1,-2,4,-10,-8,-1,-1,-3
16629243,3,-1,0,-2,1,0,0,1
16637876,3,-4,-4,-5,-2,-2,-2,1
16637876,-3,-2,-7,2,-5,-3,-3,0
16652240,-4,7,1,3,2,-2,-3,0
16652240,-5,-8,-1,-1,0,0,0,-3
16659386,3,2,3,9,3,1,-2,-1
16659386,0,-3,-3,-3,-3,0,0,-2
16674931,-2,-1,-6,-4,-3,-2,-2,-1
16674931,-3,-12,0,3,-4,-1,-3,-1
16676894,2,0,-5,-6,-3,-2,-1,3
16676894,-10,0,0,-4,-5,-1,-1,-2
16689186,-7,-4,-2,-4,2,-1,3,-4
16689186,7,9,0,6,0,-1,-1,4
16697896,-8,-5,0,-13,-2,-3,-1,-9
16697896,1,-2,-1,5,3,3,2,0
16712189,2,-3,-2,14,-6,-4,-1,0
16712189,-4,4,4,-9,2,1,-2,-2
16719188,-1,-8,-3,-3,-3,-3,-2,2
16719188,-1,2,0,-5,-2,-3,-1,-2
16735159,-1,-5,-5,-2,1,-2,-2,-3
16735159,-1,2,-4,-1,-3,-1,-1,-1
16736898,1,-10,0,3,1,1,-1,3
16736898,1,3,-1,-30,-2,-2,-1,-5
16749235,-3,4,3,4,-7,-2,-1,1
16749235,-6,-13,-1,-4,-2,-3,-1,-3
16757918,5,6,-2,-3,-1,1,1,-3
16757918,-2,-8,3,19,6,-1,-1,-1
16771935,2,2,-6,-9,0,1,1,2
16771935,0,10,-4,-7,-1,-3,-3,-3
16779929,-9,1,7,10,0,0,1,1
16779929,6,5,-3,-4,-5,-2,-3,0
16794929,-5,-26,1,0,3,1,-2,-3
16794929,-5,1,-5,12,-2,-3,0,-3
16796929,-1,-2,-4,-5,-3,-3,-2,-2
16796929,-6,5,1,5,0,-2,-2,-2
16808936,3,2,-2,-7,-2,-2,0,-1
16808936,0,-3,0,2,1,0,-2,-2
16817929,1,1,-3,-4,-3,-2,-1,-1
16817929,-3,7,0,-7,-5,-1,1,-5
16832218,2,-8,-2,-3,2,-1,1,1
16832218,-3,1,4,35,3,-2,0,0
16839223,2,-4,1,-26,-9,-2,-3,-3
16839223,-1,-9,-3,0,-1,-2,-3,1
16855417,4,3,-3,-9,0,1,0,0
16855417,-1,-9,-4,-2,-1,-1,1,-2
16857402,-4,2,-3,-2,0,0,2,0
16857402,0,-3,-1,3,-3,-4,-2,-2
16869157,-2,-1,-1,13,3,-1,-3,0
16869157,6,11,1,-21,-4,-1,0,-2
16878419,-6,-7,-2,4,-2,-2,-2,-2
16878419,0,-10,-3,-9,-1,0,1,0
16892449,-4,7,0,5,-1,-3,-4,-2
16892449,-5,-2,-3,-11,-4,-3,-1,0
16899448,0,0,-4,7,4,-1,0,0
16899448,7,5,0,7,-1,-1,2,-5
16922471,-16,-4,-3,-5,-1,0,-1,4
16922471,8,-2,0,-4,-4,-2,-3,5
16924167,7,8,-1,3,-1,-2,-1,-5
16924167,-18,-7,-2,-1,-3,0,-4,-1
16929517,-4,-26,-3,-1,0,-1,-2,-5
16929517,-1,1,-1,-5,1,2,-2,2
16938167,-4,-5,-3,3,-3,-1,0,1
16938167,1,4,-2,5,-2,-1,-3,0
16952541,4,8,3,-12,-3,-1,2,-4
16952541,-5,-3,2,8,2,-1,-2,-1
16959175,-3,5,1,13,4,1,-1,-3
16959175,2,3,1,-18,1,0,-2,-2
16975563,-1,-12,-2,8,-12,-3,1,-1
16975563,-2,-2,-3,-6,-3,-2,-1,-2
16977198,10,5,-1,-18,-2,1,1,3
16977198,-7,-5,-2,6,-1,-2,0,0
16989564,-2,6,-3,-5,1,0,0,-1
16989564,-6,-2,1,-3,-1,-1,-2,-3
16998193,0,-2,-3,13,3,-2,-2,-1
16998193,3,0,-1,-7,-6,-2,-3,-1
17012200,-10,-1,-2,-2,-1,-1,-2,-2
17012200,-3,-3,0,1,-1,-1,0,1
17019534,-1,-9,-1,1,0,-1,-2,1
17019534,1,3,-1,-1,-3,-2,0,1
17035537,3,-1,-2,-2,-2,0,-3,-1
17035537,2,-3,-3,-2,-1,-1,0,-5
17037202,-4,2,0,-3,0,0,-1,0
17037202,-1,-4,-1,3,0,-2,-1,-3
17049196,5,1,3,1,0,-3,-1,-2
17049196,0,10,1,-3,-4,-2,-4,0
17064001,-4,-12,-6,-2,-4,-3,0,-1
17064001,0,2,1,0,-1,-2,-2,-4
17072060,11,-2,1,0,4,1,-1,2
17072060,1,-2,-2,0,2,-2,-2,-4
17079382,-2,-1,-1,-4,-6,-2,1,-1
17079382,3,-9,-2,0,-4,0,-1,4
17094324,-20,8,-4,-31,-2,-2,-1,-2
17094324,-4,-5,2,6,-7,-2,0,-5
17101356,-2,-8,-4,6,2,-2,-2,1
17101356,-9,-3,-2,-6,-3,-1,-1,-11
17109056,9,1,-1,4,2,0,-1,-4
17109056,2,-1,-5,-7,5,2,1,5
17118021,-7,7,-1,-3,-4,-3,-1,-7
17118021,3,-9,5,6,5,1,-2,2
17132022,2,2,-1,8,1,0,1,0
17132022,-7,-5,-5,-8,-6,-1,-6,-6
17139314,1,1,4,3,-3,0,-4,0
17139314,1,2,-1,1,2,0,-2,4
17154247,-5,13,-3,1,-4,-1,1,-4
17154247,18,-15,-3,-3,2,0,-3,0
17161279,-11,-3,-1,-4,-2,-3,-5,-1
17161279,4,4,0,0,-1,-2,-1,-1
17169249,6,-4,-2,0,-3,-2,-3,0
17169249,-26,-5,-2,-3,-2,-2,-1,-2
17178255,2,5,2,8,0,-1,0,0
17178255,-4,-9,3,-1,2,-1,0,1
17192489,5,4,-1,8,-1,0,-4,-3
17192489,5,6,-3,-7,-3,-1,1,4
17199484,-5,-11,-5,-6,-1,-1,-1,-6
17199484,5,7,-3,-4,-3,0,2,-3
